# Melt Pool Geometry History
# time(s)  length(m)  depth(m)  width(m)  volume(m3)  Tpeak(K)  laser_on
 2.10000E-05   0.00000E+00   0.00000E+00   0.00000E+00   7.98799E-14      293.00  1
 4.10000E-05   3.96507E-05   1.02518E-04   3.75279E-05   2.27310E-13     1906.74  1
 6.10000E-05   7.29433E-05   1.08351E-04   5.70281E-05   3.53871E-13     2502.97  1
 8.10000E-05   9.87896E-05   1.09363E-04   6.24830E-05   4.74262E-13     2855.46  1
 1.01000E-04   1.23860E-04   1.09743E-04   6.45980E-05   4.55323E-13     2932.38  0
 1.21000E-04   1.25874E-04   1.07724E-04   6.47866E-05   4.26625E-13     2565.26  0
 1.41000E-04   1.26394E-04   1.03188E-04   6.43557E-05   3.95823E-13     2390.62  0
 1.61000E-04   1.26508E-04   9.83411E-05   6.36318E-05   3.64248E-13     2243.78  0
 1.81000E-04   1.26395E-04   9.30358E-05   6.27477E-05   3.35817E-13     2124.99  0
 2.01000E-04   1.24919E-04   8.55077E-05   6.17123E-05   2.95891E-13     2029.37  0
 2.21000E-04   1.24825E-04   7.80413E-05   6.56441E-05   2.79167E-13     1899.42  0
 2.41000E-04   1.24866E-04   7.11209E-05   6.66203E-05   2.59122E-13     1816.97  0
 2.61000E-04   1.24339E-04   6.41695E-05   6.66016E-05   2.38849E-13     1755.52  0
 2.81000E-04   1.23821E-04   5.79974E-05   6.61764E-05   2.18509E-13     1711.02  0
 3.01000E-04   1.23451E-04   5.20180E-05   6.55848E-05   1.97722E-13     1679.25  0
 3.21000E-04   1.23335E-04   4.63524E-05   6.50524E-05   1.76979E-13     1656.06  0
 3.41000E-04   1.23222E-04   4.19348E-05   6.45789E-05   1.56592E-13     1639.53  0
 3.61000E-04   1.23083E-04   3.78718E-05   6.43148E-05   1.36997E-13     1628.57  0
 3.81000E-04   1.22909E-04   3.37663E-05   6.42096E-05   1.18497E-13     1623.16  0
 4.01000E-04   1.22697E-04   3.03914E-05   6.40958E-05   1.00976E-13     1621.97  0
 4.21000E-04   1.22457E-04   2.79149E-05   6.39666E-05   8.44831E-14     1620.44  0
 4.41000E-04   1.22187E-04   2.44699E-05   6.38141E-05   6.88650E-14     1618.39  0
 4.61000E-04   1.21847E-04   2.26421E-05   6.36290E-05   5.41898E-14     1615.80  0
 4.81000E-04   1.21403E-04   1.93642E-05   6.33998E-05   4.05278E-14     1612.52  0
 5.01000E-04   1.20785E-04   1.77812E-05   6.31107E-05   2.82605E-14     1608.56  0
 5.21000E-04   1.17401E-04   1.46913E-05   6.27504E-05   1.76104E-14     1603.60  0
 5.41000E-04   1.00570E-04   1.35464E-05   6.22708E-05   9.27695E-15     1597.77  0
 5.61000E-04   7.89895E-05   1.31556E-05   6.16534E-05   3.25811E-15     1590.35  0
 5.81000E-04   5.61773E-05   1.27453E-05   6.05633E-05   3.62650E-16     1581.39  0
 6.01000E-04   3.24217E-05   8.53883E-06   3.55327E-05   1.24920E-13     1572.03  1
 6.21000E-04   6.23595E-05   1.06464E-04   5.92475E-05   3.19385E-13     1987.10  1
 6.41000E-04   9.22177E-05   1.10292E-04   7.50099E-05   4.90087E-13     2823.70  1
 6.61000E-04   1.23206E-04   1.11734E-04   8.45346E-05   6.48167E-13     3104.53  1
 6.81000E-04   1.37372E-04   1.12405E-04   8.86588E-05   8.11099E-13     3221.84  1
 7.01000E-04   1.55997E-04   1.12480E-04   9.44857E-05   9.61107E-13     3277.51  1
 7.21000E-04   1.78781E-04   1.12241E-04   9.81772E-05   1.10150E-12     3217.81  1
 7.41000E-04   2.02204E-04   1.11787E-04   1.00742E-04   1.24026E-12     3094.35  1
 7.61000E-04   2.29840E-04   1.11238E-04   1.04894E-04   1.22025E-12     3029.67  0
 7.81000E-04   2.30411E-04   1.08888E-04   1.11454E-04   1.18400E-12     2623.08  0
 8.01000E-04   2.30201E-04   1.05983E-04   1.12315E-04   1.15065E-12     2417.69  0
 8.21000E-04   2.29321E-04   1.03040E-04   1.17407E-04   1.10256E-12     2256.69  0
 8.41000E-04   2.28546E-04   9.90579E-05   1.22152E-04   1.04949E-12     2131.97  0
 8.61000E-04   2.27719E-04   9.57523E-05   1.23579E-04   9.96119E-13     2032.97  0
 8.81000E-04   2.26923E-04   9.27235E-05   1.23806E-04   9.42052E-13     1954.98  0
 9.01000E-04   2.26208E-04   8.85937E-05   1.24007E-04   8.88990E-13     1893.40  0
 9.21000E-04   2.25608E-04   8.47696E-05   1.24101E-04   8.37593E-13     1842.30  0
 9.41000E-04   2.25159E-04   8.16556E-05   1.24044E-04   7.86860E-13     1799.95  0
 9.61000E-04   2.24686E-04   7.80700E-05   1.23828E-04   7.36719E-13     1764.21  0
 9.81000E-04   2.24218E-04   7.39991E-05   1.23572E-04   6.86745E-13     1734.01  0
 1.00100E-03   2.23816E-04   7.03590E-05   1.23303E-04   6.37300E-13     1708.34  0
 1.02100E-03   2.23616E-04   6.75121E-05   1.23045E-04   5.88767E-13     1686.94  0
 1.04100E-03   2.23438E-04   6.34081E-05   1.22818E-04   5.40874E-13     1669.06  0
 1.06100E-03   2.23227E-04   5.97428E-05   1.22707E-04   4.94095E-13     1654.51  0
 1.08100E-03   2.22990E-04   5.70614E-05   1.22666E-04   4.48896E-13     1642.91  0
 1.10100E-03   2.22718E-04   5.33917E-05   1.22620E-04   4.05144E-13     1633.98  0
 1.12100E-03   2.22373E-04   4.98937E-05   1.22562E-04   3.63146E-13     1627.79  0
 1.14100E-03   2.21969E-04   4.75831E-05   1.22490E-04   3.23251E-13     1624.01  0
 1.16100E-03   2.21502E-04   4.38677E-05   1.22406E-04   2.85631E-13     1622.79  0
 1.18100E-03   2.21016E-04   4.11849E-05   1.22306E-04   2.50139E-13     1622.22  0
 1.20100E-03   2.14907E-04   3.84696E-05   1.22190E-04   2.16841E-13     1621.45  0
 1.22100E-03   2.05679E-04   3.56655E-05   1.22054E-04   1.86056E-13     1620.47  0
 1.24100E-03   1.89515E-04   3.34139E-05   1.21895E-04   1.57582E-13     1619.26  0
 1.26100E-03   1.80833E-04   3.08133E-05   1.21690E-04   2.65954E-13     1617.81  1
 1.28100E-03   2.13195E-04   1.07192E-04   1.41134E-04   4.49980E-13     1974.35  1
 1.30100E-03   2.10898E-04   1.10777E-04   1.43359E-04   6.31420E-13     2829.29  1
 1.32100E-03   2.06583E-04   1.12476E-04   1.45657E-04   8.09121E-13     3123.74  1
 1.34100E-03   2.01298E-04   1.13292E-04   1.47097E-04   9.95786E-13     3255.14  1
 1.36100E-03   1.97171E-04   1.13700E-04   1.47442E-04   1.18302E-12     3354.13  1
 1.38100E-03   2.02731E-04   1.14173E-04   1.47401E-04   1.37064E-12     3406.42  1
 1.40100E-03   2.19116E-04   1.13901E-04   1.44829E-04   1.56982E-12     3372.30  1
 1.42100E-03   2.38186E-04   1.13784E-04   1.47210E-04   1.74321E-12     3347.11  1
 1.44100E-03   2.59622E-04   1.13675E-04   1.48196E-04   1.90293E-12     3302.02  1
 1.46100E-03   2.80444E-04   1.13354E-04   1.49090E-04   2.05233E-12     3231.24  1
 1.48100E-03   3.02330E-04   1.12762E-04   1.49862E-04   2.19054E-12     3139.82  1
 1.50100E-03   3.26072E-04   1.11907E-04   1.50510E-04   2.15605E-12     3057.77  0
 1.52100E-03   3.28639E-04   1.09679E-04   1.51099E-04   2.10346E-12     2636.06  0
 1.54100E-03   3.29424E-04   1.08179E-04   1.51456E-04   2.04419E-12     2409.29  0
 1.56100E-03   3.29241E-04   1.05018E-04   1.51611E-04   1.97621E-12     2265.51  0
 1.58100E-03   3.28798E-04   1.02911E-04   1.51582E-04   1.90412E-12     2164.53  0
 1.60100E-03   3.27233E-04   9.93841E-05   1.50324E-04   1.82694E-12     2086.00  0
 1.62100E-03   3.26624E-04   9.75400E-05   1.51178E-04   1.75046E-12     2018.32  0
 1.64100E-03   3.26191E-04   9.40710E-05   1.51540E-04   1.67322E-12     1959.82  0
 1.66100E-03   3.25788E-04   9.18455E-05   1.51430E-04   1.59544E-12     1911.11  0
 1.68100E-03   3.25377E-04   8.88041E-05   1.50875E-04   1.51854E-12     1868.58  0
 1.70100E-03   3.24963E-04   8.63000E-05   1.50015E-04   1.44174E-12     1831.47  0
 1.72100E-03   3.24542E-04   8.36101E-05   1.49072E-04   1.36616E-12     1799.22  0
 1.74100E-03   3.24128E-04   8.09821E-05   1.47472E-04   1.29080E-12     1770.99  0
 1.76100E-03   3.23765E-04   7.84658E-05   1.46862E-04   1.21632E-12     1745.84  0
 1.78100E-03   3.23525E-04   7.57186E-05   1.46111E-04   1.14242E-12     1723.76  0
 1.80100E-03   3.23321E-04   7.33639E-05   1.43920E-04   1.06956E-12     1704.22  0
 1.82100E-03   3.23082E-04   7.05934E-05   1.39840E-04   9.97889E-13     1687.42  0
 1.84100E-03   3.22787E-04   6.83156E-05   1.37198E-04   9.27476E-13     1672.77  0
 1.86100E-03   3.22447E-04   6.56628E-05   1.34290E-04   8.58937E-13     1660.43  0
 1.88100E-03   3.21982E-04   6.34522E-05   1.28889E-04   7.92170E-13     1650.05  0
 1.90100E-03   3.16393E-04   6.09393E-05   1.26151E-04   7.28095E-13     1641.39  0
 1.92100E-03   3.10251E-04   5.86201E-05   1.23992E-04   6.66717E-13     1634.48  0
 1.94100E-03   3.03340E-04   5.63074E-05   1.19456E-04   6.08246E-13     1629.17  0
 1.96100E-03   2.96962E-04   5.38359E-05   1.16924E-04   5.52571E-13     1625.44  0
 1.98100E-03   2.92575E-04   5.18372E-05   1.15397E-04   5.00112E-13     1623.33  0
 2.00100E-03   2.86264E-04   4.91447E-05   1.13770E-04   5.72522E-13     1622.81  1
 2.02100E-03   3.22848E-04   1.06355E-04   1.44418E-04   7.44405E-13     1921.95  1
 2.04100E-03   3.17913E-04   1.10642E-04   1.48878E-04   8.98704E-13     2778.55  1
 2.06100E-03   3.15549E-04   1.12528E-04   1.50124E-04   1.06869E-12     3126.86  1
 2.08100E-03   3.11366E-04   1.13432E-04   1.50130E-04   1.23528E-12     3330.25  1
 2.10100E-03   3.07423E-04   1.14131E-04   1.50913E-04   1.41169E-12     3421.05  1
 2.12100E-03   3.04783E-04   1.15035E-04   1.51799E-04   1.58495E-12     3487.87  1
 2.14100E-03   2.98662E-04   1.15720E-04   1.52761E-04   1.79042E-12     3519.99  1
 2.16100E-03   2.96095E-04   1.16076E-04   1.57675E-04   1.99886E-12     3535.66  1
 2.18100E-03   2.90022E-04   1.16198E-04   1.59329E-04   2.20807E-12     3538.14  1
 2.20100E-03   2.99422E-04   1.16005E-04   1.60292E-04   2.41191E-12     3505.35  1
 2.22100E-03   3.18608E-04   1.15742E-04   1.62198E-04   2.59628E-12     3462.03  1
 2.24100E-03   3.39997E-04   1.15430E-04   1.63068E-04   2.76936E-12     3408.00  1
 2.26100E-03   3.60437E-04   1.14953E-04   1.63721E-04   2.92975E-12     3371.62  1
 2.28100E-03   3.81662E-04   1.14237E-04   1.64188E-04   3.07729E-12     3292.53  1
 2.30100E-03   4.06499E-04   1.13638E-04   1.64518E-04   3.21248E-12     3217.11  1
 2.32100E-03   4.27932E-04   1.12722E-04   1.64713E-04   3.18285E-12     3104.89  0
 2.34100E-03   4.28995E-04   1.10564E-04   1.66477E-04   3.12809E-12     2708.75  0
 2.36100E-03   4.29178E-04   1.08824E-04   1.67455E-04   3.06261E-12     2469.27  0
 2.38100E-03   4.29157E-04   1.07065E-04   1.67643E-04   2.98748E-12     2311.23  0
 2.40100E-03   4.27072E-04   1.03985E-04   1.66743E-04   2.88997E-12     2202.57  0
 2.42100E-03   4.32230E-04   1.02396E-04   1.67542E-04   2.80218E-12     2121.20  0
 2.44100E-03   4.33061E-04   9.93414E-05   1.67405E-04   2.70329E-12     2049.44  0
 2.46100E-03   4.33226E-04   9.77548E-05   1.67141E-04   2.59990E-12     1986.26  0
 2.48100E-03   4.33174E-04   9.47507E-05   1.66531E-04   2.49443E-12     1931.15  0
 2.50100E-03   4.33011E-04   9.30678E-05   1.65475E-04   2.38935E-12     1884.44  0
 2.52100E-03   4.32781E-04   9.02934E-05   1.65187E-04   2.28326E-12     1844.61  0
 2.54100E-03   4.32530E-04   8.83968E-05   1.64723E-04   2.17795E-12     1810.54  0
 2.56100E-03   4.32288E-04   8.59532E-05   1.63387E-04   2.07233E-12     1781.60  0
 2.58100E-03   4.32107E-04   8.37415E-05   1.60359E-04   1.96808E-12     1756.50  0
 2.60100E-03   4.31824E-04   8.17515E-05   1.58744E-04   1.86523E-12     1734.95  0
 2.62100E-03   4.28800E-04   7.91065E-05   1.57270E-04   1.76373E-12     1716.12  0
 2.64100E-03   4.22942E-04   7.75936E-05   1.56066E-04   1.66455E-12     1699.76  0
 2.66100E-03   4.21490E-04   7.47119E-05   1.54899E-04   1.56715E-12     1685.54  0
 2.68100E-03   4.15140E-04   7.31419E-05   1.54100E-04   1.47207E-12     1673.03  0
 2.70100E-03   4.12023E-04   7.07164E-05   1.53488E-04   1.37934E-12     1662.10  0
 2.72100E-03   4.11205E-04   6.87752E-05   1.52745E-04   1.28904E-12     1652.81  0
 2.74100E-03   4.04757E-04   6.71139E-05   1.47037E-04   1.20205E-12     1644.90  0
 2.76100E-03   4.01914E-04   6.44689E-05   1.45002E-04   1.11826E-12     1638.27  0
 2.78100E-03   4.00794E-04   6.29922E-05   1.43645E-04   1.03788E-12     1632.90  0
 2.80100E-03   3.89681E-04   6.04106E-05   1.40643E-04   9.61234E-13     1628.69  0
 2.82100E-03   3.76382E-04   5.86629E-05   1.37670E-04   1.00325E-12     1625.57  1
 2.84100E-03   5.09967E-05   1.05803E-04   5.18516E-05   1.13226E-12     1900.29  1
 2.86100E-03   4.21628E-04   1.10281E-04   1.68990E-04   1.26884E-12     2705.53  1
 2.88100E-03   4.15794E-04   1.12253E-04   1.70156E-04   1.40873E-12     3070.84  1
 2.90100E-03   4.11876E-04   1.13111E-04   1.69470E-04   1.57030E-12     3256.32  1
 2.92100E-03   4.06842E-04   1.13878E-04   1.70210E-04   1.74212E-12     3395.67  1
 2.94100E-03   4.04315E-04   1.14931E-04   1.70202E-04   1.91198E-12     3505.31  1
 2.96100E-03   4.02171E-04   1.15878E-04   1.69817E-04   2.08771E-12     3541.10  1
 2.98100E-03   3.96648E-04   1.16485E-04   1.69314E-04   2.27060E-12     3604.47  1
 3.00100E-03   3.90690E-04   1.16795E-04   1.68186E-04   2.46857E-12     3553.28  1
 3.02100E-03   3.91889E-04   1.16965E-04   1.68467E-04   2.66200E-12     3589.80  1
 3.04100E-03   3.86113E-04   1.17283E-04   1.68319E-04   2.86211E-12     3613.29  1
 3.06100E-03   3.82850E-04   1.17464E-04   1.68756E-04   3.06003E-12     3592.04  1
 3.08100E-03   3.84483E-04   1.17428E-04   1.69657E-04   3.25654E-12     3607.02  1
 3.10100E-03   4.03646E-04   1.17177E-04   1.72624E-04   3.44483E-12     3552.06  1
 3.12100E-03   4.24091E-04   1.16819E-04   1.74145E-04   3.64314E-12     3500.03  1
 3.14100E-03   4.45548E-04   1.16328E-04   1.78219E-04   3.82371E-12     3441.97  1
 3.16100E-03   4.66482E-04   1.15623E-04   1.80078E-04   3.98877E-12     3362.90  1
 3.18100E-03   4.87220E-04   1.14763E-04   1.80940E-04   4.13977E-12     3299.39  1
 3.20100E-03   5.08615E-04   1.14055E-04   1.81546E-04   4.27108E-12     3236.77  1
 3.22100E-03   5.31577E-04   1.13287E-04   1.81943E-04   4.22888E-12     3156.86  0
 3.24100E-03   5.35012E-04   1.11774E-04   1.82240E-04   4.16049E-12     2714.09  0
 3.26100E-03   5.35786E-04   1.09462E-04   1.82329E-04   4.07338E-12     2468.13  0
 3.28100E-03   5.35731E-04   1.08047E-04   1.82347E-04   3.97547E-12     2318.06  0
 3.30100E-03   5.35725E-04   1.05417E-04   1.82287E-04   3.86809E-12     2217.71  0
 3.32100E-03   5.35614E-04   1.03593E-04   1.82121E-04   3.75460E-12     2140.51  0
 3.34100E-03   5.35422E-04   1.01464E-04   1.81871E-04   3.63579E-12     2072.40  0
 3.36100E-03   5.35122E-04   9.91233E-05   1.81567E-04   3.51399E-12     2012.03  0
 3.38100E-03   5.34747E-04   9.76513E-05   1.81211E-04   3.39075E-12     1957.38  0
 3.40100E-03   5.33940E-04   9.46846E-05   1.80461E-04   3.22401E-12     1908.98  0
 3.42100E-03   5.28198E-04   9.31597E-05   1.84117E-04   3.09063E-12     1864.83  0
 3.44100E-03   5.24579E-04   9.06977E-05   1.84100E-04   2.95572E-12     1826.12  0
 3.46100E-03   5.22857E-04   8.87649E-05   1.83608E-04   2.82068E-12     1794.17  0
 3.48100E-03   5.22034E-04   8.70939E-05   1.83024E-04   2.68647E-12     1766.35  0
 3.50099E-03   5.14781E-04   8.44430E-05   1.81847E-04   2.55264E-12     1741.60  0
 3.52099E-03   5.12154E-04   8.29617E-05   1.78572E-04   2.42045E-12     1720.33  0
 3.54099E-03   5.06820E-04   8.05642E-05   1.76800E-04   2.29030E-12     1701.81  0
 3.56099E-03   5.02104E-04   7.88296E-05   1.75880E-04   2.16304E-12     1686.17  0
 3.58099E-03   4.95421E-04   7.75235E-05   1.75120E-04   2.03854E-12     1672.76  0
 3.60099E-03   4.93230E-04   7.47677E-05   1.74122E-04   1.91282E-12     1661.21  0
 3.62099E-03   4.91725E-04   7.33405E-05   1.73331E-04   1.79540E-12     1651.52  0
 3.64099E-03   4.83974E-04   7.13032E-05   1.71948E-04   1.68216E-12     1643.47  0
 3.66099E-03   4.76730E-04   6.92575E-05   1.68135E-04   1.57328E-12     1636.87  0
 3.68099E-03   4.72156E-04   6.79017E-05   1.66354E-04   1.46921E-12     1631.62  0
 3.70099E-03   4.65635E-04   6.54162E-05   1.65267E-04   1.36922E-12     1627.68  0
 3.72099E-03   4.62031E-04   6.37932E-05   1.64198E-04   1.37282E-12     1624.96  1
 3.74099E-03   4.28013E-05   1.05928E-04   4.90826E-05   1.47740E-12     1900.11  1
 3.76099E-03   5.16711E-04   1.10151E-04   1.86546E-04   1.59510E-12     2618.99  1
 3.78099E-03   5.15002E-04   1.11913E-04   1.84628E-04   1.72030E-12     3049.26  1
 3.80099E-03   5.08987E-04   1.12811E-04   1.83571E-04   1.85375E-12     3211.40  1
 3.82099E-03   5.07555E-04   1.13692E-04   1.83953E-04   1.99411E-12     3384.00  1
 3.84099E-03   5.04828E-04   1.14873E-04   1.83033E-04   2.16423E-12     3518.45  1
 3.86099E-03   5.00463E-04   1.15939E-04   1.86971E-04   2.33542E-12     3539.67  1
 3.88099E-03   4.96300E-04   1.16712E-04   1.87113E-04   2.51046E-12     3620.15  1
 3.90099E-03   4.93534E-04   1.17300E-04   1.84398E-04   2.69003E-12     3624.34  1
 3.92099E-03   4.87015E-04   1.17656E-04   1.82644E-04   2.87704E-12     3649.71  1
 3.94099E-03   4.84354E-04   1.17860E-04   1.81930E-04   3.07102E-12     3635.37  1
 3.96099E-03   4.77605E-04   1.18046E-04   1.81379E-04   3.27022E-12     3661.28  1
 3.98099E-03   4.74593E-04   1.18207E-04   1.82781E-04   3.47218E-12     3636.30  1
 4.00099E-03   4.67554E-04   1.18293E-04   1.84030E-04   3.69377E-12     3643.28  1
 4.02099E-03   4.64245E-04   1.18262E-04   1.88532E-04   3.91046E-12     3601.26  1
 4.04099E-03   4.59464E-04   1.18183E-04   1.90538E-04   4.12376E-12     3611.60  1
 4.06099E-03   4.71373E-04   1.18029E-04   1.91639E-04   4.33153E-12     3563.12  1
 4.08099E-03   4.92007E-04   1.17808E-04   1.92518E-04   4.52719E-12     3549.57  1
 4.10099E-03   5.18356E-04   1.17425E-04   1.93410E-04   4.70879E-12     3486.83  1
 4.12099E-03   5.38447E-04   1.16810E-04   1.93962E-04   4.87898E-12     3404.65  1
 4.14099E-03   5.61788E-04   1.16105E-04   1.94307E-04   5.03235E-12     3363.45  1
 4.16100E-03   5.86286E-04   1.15240E-04   1.94536E-04   5.16490E-12     3298.97  1
 4.18100E-03   6.06563E-04   1.14401E-04   1.94630E-04   5.28318E-12     3262.09  1
 4.20100E-03   6.28077E-04   1.13701E-04   1.94703E-04   5.38124E-12     3204.13  1
 4.22100E-03   6.54787E-04   1.12792E-04   1.94757E-04   5.30003E-12     3136.68  0
 4.24100E-03   6.55868E-04   1.10691E-04   1.94729E-04   5.19504E-12     2705.30  0
 4.26100E-03   6.56212E-04   1.08888E-04   1.94595E-04   5.07949E-12     2453.62  0
 4.28100E-03   6.56132E-04   1.07293E-04   1.94349E-04   4.95073E-12     2295.74  0
 4.30100E-03   6.55854E-04   1.04270E-04   1.94150E-04   4.81502E-12     2187.85  0
 4.32100E-03   6.55299E-04   1.02836E-04   1.93877E-04   4.67431E-12     2108.84  0
 4.34100E-03   6.54584E-04   1.00145E-04   1.93566E-04   4.52927E-12     2042.65  0
 4.36100E-03   6.50164E-04   9.85116E-05   1.93193E-04   4.38267E-12     1982.58  0
 4.38100E-03   6.44573E-04   9.65592E-05   1.92740E-04   4.23439E-12     1928.59  0
 4.40100E-03   6.37313E-04   9.42809E-05   1.92224E-04   4.08132E-12     1882.88  0
 4.42100E-03   6.33554E-04   9.28693E-05   1.91847E-04   3.93308E-12     1843.30  0
 4.44100E-03   6.26722E-04   9.03360E-05   1.91097E-04   3.78463E-12     1810.82  0
 4.46100E-03   6.23480E-04   8.87777E-05   1.90277E-04   3.63704E-12     1784.70  0
 4.48100E-03   6.17696E-04   8.75259E-05   1.89200E-04   3.48933E-12     1762.40  0
 4.50100E-03   6.14632E-04   8.49249E-05   1.88088E-04   3.34241E-12     1742.92  0
 4.52100E-03   6.13671E-04   8.35490E-05   1.86423E-04   3.19761E-12     1725.54  0
 4.54100E-03   6.12971E-04   8.19505E-05   1.82755E-04   3.05395E-12     1710.13  0
 4.56100E-03   6.11977E-04   7.96703E-05   1.80660E-04   2.91237E-12     1696.49  0
 4.58100E-03   6.05320E-04   7.83652E-05   1.79300E-04   2.77339E-12     1684.41  0
 4.60100E-03   6.02611E-04   7.64563E-05   1.77944E-04   2.63383E-12     1673.66  0
 4.62100E-03   6.01633E-04   7.44514E-05   1.76665E-04   2.49962E-12     1664.00  0
 4.64100E-03   5.92028E-04   7.31725E-05   1.75528E-04   2.36886E-12     1655.55  0
 4.66100E-03   5.83531E-04   7.10892E-05   1.74102E-04   2.24151E-12     1648.12  0
 4.68100E-03   5.79870E-04   6.92796E-05   1.70691E-04   2.11809E-12     1641.66  0
 4.70100E-03   5.74320E-04   6.80147E-05   1.68638E-04   1.99817E-12     1636.17  0
 4.72100E-03   5.71810E-04   6.58137E-05   1.67475E-04   2.02570E-12     1631.71  1
