# Melt Pool Geometry History
# time(s)  length(m)  depth(m)  width(m)  volume(m3)  Tpeak(K)  laser_on
 2.10000E-05   0.00000E+00   0.00000E+00   0.00000E+00   7.86125E-14      293.00  1
 4.10000E-05   4.00753E-05   1.02492E-04   3.83442E-05   2.33361E-13     1903.78  1
 6.10000E-05   7.08440E-05   1.07965E-04   5.58710E-05   3.61196E-13     2522.83  1
 8.10000E-05   1.00801E-04   1.08737E-04   6.09767E-05   4.84809E-13     2706.40  1
 1.01000E-04   1.28013E-04   1.09085E-04   6.27166E-05   6.05114E-13     2832.40  1
 1.21000E-04   1.55078E-04   1.09112E-04   6.36663E-05   5.77401E-13     2842.71  0
 1.41000E-04   1.56859E-04   1.06831E-04   6.38724E-05   5.45006E-13     2505.36  0
 1.61000E-04   1.56915E-04   1.02741E-04   6.33513E-05   5.07658E-13     2344.70  0
 1.81000E-04   1.56864E-04   9.79484E-05   6.27187E-05   4.71548E-13     2217.87  0
 2.01000E-04   1.56145E-04   8.93864E-05   6.17736E-05   3.98472E-13     2109.06  0
 2.21000E-04   1.56754E-04   8.46263E-05   6.56214E-05   3.71689E-13     1962.87  0
 2.41000E-04   1.56248E-04   7.91306E-05   6.56515E-05   3.45367E-13     1877.29  0
 2.61000E-04   1.55448E-04   7.32880E-05   6.51329E-05   3.20665E-13     1813.60  0
 2.81000E-04   1.54696E-04   6.72248E-05   6.42753E-05   2.97078E-13     1766.45  0
 3.01000E-04   1.54105E-04   6.04324E-05   6.31596E-05   2.73929E-13     1729.62  0
 3.21000E-04   1.53874E-04   5.47144E-05   6.18419E-05   2.50798E-13     1699.74  0
 3.41000E-04   1.53737E-04   4.96262E-05   6.04332E-05   2.27444E-13     1675.64  0
 3.61000E-04   1.53569E-04   4.51651E-05   5.90368E-05   2.04097E-13     1656.21  0
 3.81000E-04   1.53370E-04   4.16126E-05   5.77935E-05   1.80683E-13     1641.26  0
 4.01000E-04   1.53135E-04   3.81158E-05   5.69163E-05   1.58027E-13     1630.59  0
 4.21000E-04   1.52852E-04   3.44331E-05   5.65781E-05   1.36408E-13     1624.26  0
 4.41000E-04   1.52531E-04   3.20746E-05   5.62810E-05   1.15907E-13     1622.47  0
 4.61000E-04   1.52195E-04   2.88060E-05   5.59975E-05   9.65595E-14     1621.32  0
 4.81000E-04   1.51774E-04   2.63657E-05   5.57092E-05   7.85099E-14     1619.69  0
 5.01000E-04   1.51232E-04   2.37563E-05   5.54018E-05   6.17776E-14     1617.54  0
 5.21000E-04   1.49342E-04   2.16065E-05   5.50637E-05   4.66051E-14     1614.80  0
 5.41000E-04   1.40433E-04   1.89858E-05   5.46685E-05   3.32193E-14     1611.37  0
 5.61000E-04   1.26785E-04   1.74751E-05   5.41911E-05   2.18008E-14     1607.22  0
 5.81000E-04   1.08095E-04   1.43280E-05   5.36087E-05   1.24099E-14     1602.09  0
 6.01000E-04   8.89066E-05   1.25524E-05   4.68942E-05   3.75528E-15     1595.24  0
 6.21000E-04   6.38749E-05   9.04343E-06   4.80018E-05   7.78954E-14     1586.93  1
 6.41000E-04   4.96486E-05   1.03517E-04   5.00650E-05   2.58716E-13     1829.22  1
 6.61000E-04   7.86689E-05   1.08762E-04   6.03967E-05   4.15804E-13     2578.56  1
 6.81000E-04   1.07590E-04   1.10113E-04   7.51583E-05   5.83229E-13     2846.31  1
 7.01000E-04   1.37290E-04   1.10840E-04   8.19494E-05   7.44697E-13     2895.66  1
 7.21000E-04   1.66159E-04   1.11255E-04   8.61444E-05   8.98149E-13     2974.42  1
 7.41000E-04   1.95248E-04   1.11230E-04   8.84208E-05   1.04740E-12     3020.53  1
 7.61000E-04   2.23961E-04   1.11146E-04   9.23271E-05   1.18233E-12     3016.33  1
 7.81000E-04   2.53734E-04   1.10907E-04   9.44903E-05   1.30982E-12     3025.68  1
 8.01000E-04   2.66777E-04   1.10267E-04   9.63472E-05   1.43345E-12     2969.58  1
 8.21000E-04   2.94595E-04   1.09866E-04   9.80496E-05   1.38360E-12     2920.36  0
 8.41000E-04   2.95555E-04   1.07890E-04   9.85078E-05   1.32511E-12     2530.76  0
 8.61000E-04   2.95797E-04   1.03770E-04   9.87651E-05   1.26814E-12     2338.90  0
 8.81000E-04   2.95859E-04   9.98499E-05   1.00265E-04   1.20678E-12     2209.27  0
 9.01000E-04   2.95579E-04   9.62673E-05   1.00976E-04   1.14590E-12     2109.02  0
 9.21000E-04   2.95346E-04   9.27721E-05   1.00761E-04   1.08510E-12     2020.19  0
 9.41000E-04   2.95117E-04   8.84457E-05   1.00224E-04   1.02531E-12     1942.46  0
 9.61000E-04   2.94838E-04   8.43630E-05   9.94913E-05   9.65401E-13     1878.64  0
 9.81000E-04   2.94501E-04   8.08881E-05   9.89292E-05   9.06343E-13     1826.36  0
 1.00100E-03   2.94107E-04   7.77200E-05   9.85354E-05   8.48068E-13     1783.56  0
 1.02100E-03   2.93663E-04   7.36424E-05   9.80957E-05   7.90220E-13     1748.08  0
 1.04100E-03   2.93207E-04   7.00239E-05   9.75900E-05   7.33085E-13     1718.59  0
 1.06100E-03   2.92839E-04   6.72160E-05   9.70160E-05   6.76858E-13     1694.33  0
 1.08100E-03   2.92672E-04   6.33948E-05   9.62830E-05   6.21441E-13     1674.51  0
 1.10100E-03   2.92523E-04   5.98536E-05   9.55354E-05   5.67675E-13     1658.58  0
 1.12100E-03   2.92355E-04   5.72631E-05   9.46676E-05   5.15619E-13     1645.83  0
 1.14100E-03   2.92159E-04   5.35446E-05   9.37812E-05   4.65946E-13     1636.04  0
 1.16100E-03   2.91915E-04   5.02886E-05   9.23508E-05   4.18717E-13     1629.06  0
 1.18100E-03   2.91573E-04   4.78324E-05   8.85982E-05   3.74324E-13     1624.64  0
 1.20100E-03   2.78018E-04   4.34716E-05   8.33357E-05   3.05936E-13     1622.87  0
 1.22100E-03   2.67458E-04   4.06376E-05   9.19561E-05   2.63416E-13     1622.31  0
 1.24100E-03   2.58255E-04   3.82828E-05   9.21103E-05   2.24823E-13     1621.50  0
 1.26100E-03   2.50358E-04   3.55253E-05   9.20896E-05   1.89664E-13     1620.46  0
 1.28100E-03   2.34938E-04   3.34253E-05   9.18928E-05   1.58016E-13     1619.16  0
 1.30100E-03   2.23360E-04   3.10072E-05   9.15597E-05   1.29695E-13     1617.60  0
 1.32100E-03   2.07138E-04   2.88000E-05   9.13033E-05   1.87727E-13     1615.75  1
 1.34100E-03   4.37577E-05   1.04098E-04   4.24050E-05   3.25538E-13     1862.58  1
 1.36100E-03   7.36220E-05   1.08945E-04   5.93488E-05   4.69575E-13     2583.31  1
 1.38100E-03   1.03711E-04   1.10060E-04   6.75546E-05   6.14752E-13     2779.75  1
 1.40100E-03   1.31441E-04   1.10183E-04   7.64244E-05   7.64827E-13     2772.10  1
 1.42100E-03   2.81286E-04   1.11181E-04   1.37504E-04   9.43959E-13     2852.15  1
 1.44100E-03   2.71786E-04   1.11867E-04   1.34809E-04   1.11979E-12     2923.12  1
 1.46100E-03   2.62017E-04   1.12366E-04   1.29217E-04   1.29898E-12     2958.08  1
 1.48100E-03   2.51875E-04   1.12531E-04   1.26316E-04   1.47868E-12     2981.51  1
 1.50100E-03   2.72716E-04   1.12657E-04   1.23774E-04   1.64844E-12     3001.79  1
 1.52100E-03   2.97788E-04   1.12635E-04   1.22673E-04   1.80873E-12     2996.25  1
 1.54100E-03   3.22084E-04   1.12556E-04   1.23086E-04   1.96447E-12     2975.19  1
 1.56100E-03   3.51182E-04   1.12302E-04   1.23271E-04   2.10256E-12     2970.91  1
 1.58100E-03   3.76122E-04   1.11907E-04   1.23336E-04   2.22952E-12     2959.38  1
 1.60100E-03   3.96963E-04   1.11366E-04   1.23257E-04   2.33720E-12     2881.33  1
 1.62100E-03   4.30436E-04   1.10827E-04   1.23236E-04   2.43345E-12     2862.99  1
 1.64100E-03   4.56471E-04   1.10557E-04   1.23045E-04   2.35468E-12     2864.59  0
 1.66100E-03   4.56876E-04   1.08251E-04   1.22832E-04   2.25788E-12     2453.35  0
 1.68100E-03   4.53175E-04   1.04583E-04   1.22669E-04   2.15345E-12     2244.47  0
 1.70100E-03   4.51234E-04   1.01644E-04   1.22391E-04   2.04658E-12     2115.48  0
 1.72100E-03   4.49491E-04   9.79624E-05   1.22036E-04   1.93989E-12     2018.19  0
 1.74100E-03   4.47217E-04   9.37441E-05   1.21611E-04   1.83549E-12     1944.85  0
 1.76100E-03   4.46074E-04   9.00255E-05   1.21109E-04   1.73269E-12     1887.00  0
 1.78100E-03   4.39508E-04   8.72487E-05   1.20539E-04   1.63316E-12     1840.26  0
 1.80100E-03   4.35083E-04   8.27914E-05   1.18583E-04   1.50405E-12     1799.76  0
 1.82100E-03   4.26914E-04   7.91488E-05   1.19758E-04   1.40646E-12     1762.39  0
 1.84100E-03   4.23099E-04   7.61745E-05   1.17352E-04   1.30818E-12     1729.80  0
 1.86100E-03   4.15595E-04   7.31784E-05   1.16319E-04   1.21242E-12     1702.65  0
 1.88100E-03   4.12439E-04   6.97899E-05   1.15463E-04   1.11911E-12     1680.62  0
 1.90100E-03   4.05162E-04   6.78233E-05   1.14508E-04   1.02982E-12     1663.26  0
 1.92100E-03   4.02056E-04   6.44654E-05   1.13603E-04   9.44189E-13     1649.80  0
 1.94100E-03   3.94900E-04   6.26282E-05   1.12207E-04   8.62509E-13     1639.41  0
 1.96100E-03   3.91979E-04   5.92525E-05   1.08323E-04   7.84852E-13     1631.82  0
 1.98100E-03   3.84719E-04   5.74723E-05   1.06649E-04   7.11582E-13     1626.60  0
 2.00100E-03   3.78212E-04   5.36641E-05   1.04358E-04   6.13697E-13     1623.60  0
 2.02100E-03   3.74900E-04   5.15659E-05   1.06140E-04   5.41439E-13     1622.79  0
 2.04100E-03   3.70974E-04   4.88014E-05   1.05828E-04   4.76942E-13     1622.31  0
 2.06100E-03   3.58640E-04   4.66628E-05   1.02602E-04   4.18318E-13     1621.67  0
 2.08100E-03   3.50237E-04   4.39717E-05   1.00913E-04   3.64649E-13     1620.87  0
 2.10100E-03   3.35017E-04   4.22389E-05   9.96698E-05   3.15680E-13     1619.92  0
 2.12100E-03   3.22098E-04   3.93115E-05   9.81715E-05   2.70607E-13     1618.81  0
 2.14100E-03   3.11951E-04   3.77642E-05   9.62424E-05   3.11282E-13     1617.53  1
 2.16100E-03   4.67256E-05   1.03499E-04   4.62652E-05   4.44978E-13     1841.25  1
 2.18100E-03   7.65654E-05   1.08779E-04   5.84035E-05   5.60148E-13     2540.71  1
 2.20100E-03   1.04645E-04   1.09917E-04   6.35556E-05   6.92324E-13     2774.02  1
 2.22100E-03   1.39120E-04   1.10822E-04   7.66626E-05   8.46936E-13     2846.60  1
 2.24100E-03   3.91833E-04   1.11542E-04   1.48732E-04   1.00595E-12     2938.40  1
 2.26100E-03   3.83221E-04   1.12246E-04   1.44721E-04   1.17360E-12     3040.79  1
 2.28100E-03   3.75237E-04   1.12562E-04   1.42437E-04   1.34825E-12     3065.28  1
 2.30100E-03   3.67407E-04   1.12892E-04   1.41235E-04   1.52364E-12     3085.95  1
 2.32100E-03   3.57885E-04   1.13080E-04   1.39825E-04   1.69745E-12     3084.56  1
 2.34100E-03   3.47533E-04   1.13203E-04   1.34905E-04   1.88604E-12     3079.83  1
 2.36100E-03   3.35250E-04   1.13299E-04   1.35523E-04   2.07378E-12     3114.31  1
 2.38100E-03   3.49065E-04   1.13306E-04   1.35889E-04   2.25504E-12     3092.94  1
 2.40100E-03   3.75381E-04   1.13284E-04   1.35799E-04   2.43372E-12     3089.39  1
 2.42100E-03   4.03902E-04   1.13227E-04   1.35857E-04   2.60169E-12     3081.44  1
 2.44100E-03   4.25251E-04   1.13108E-04   1.35984E-04   2.75514E-12     3093.70  1
 2.46100E-03   4.54927E-04   1.12958E-04   1.36230E-04   2.89744E-12     3077.06  1
 2.48100E-03   4.83563E-04   1.12692E-04   1.36594E-04   3.02742E-12     3050.09  1
 2.50100E-03   5.12667E-04   1.12341E-04   1.36670E-04   3.13579E-12     3056.23  1
 2.52100E-03   5.27833E-04   1.11870E-04   1.36221E-04   3.23680E-12     3023.04  1
 2.54100E-03   5.55026E-04   1.11381E-04   1.35474E-04   3.31902E-12     2988.12  1
 2.56100E-03   5.83565E-04   1.10958E-04   1.34652E-04   3.22312E-12     2939.68  0
 2.58100E-03   5.83768E-04   1.08584E-04   1.34155E-04   3.10711E-12     2551.51  0
 2.60100E-03   5.84122E-04   1.05323E-04   1.34039E-04   2.95744E-12     2336.52  0
 2.62100E-03   5.83399E-04   1.02779E-04   1.36645E-04   2.83280E-12     2172.39  0
 2.64100E-03   5.82789E-04   9.86955E-05   1.37803E-04   2.69655E-12     2047.16  0
 2.66100E-03   5.78056E-04   9.50048E-05   1.38045E-04   2.55757E-12     1952.60  0
 2.68100E-03   5.70064E-04   9.23246E-05   1.37952E-04   2.41861E-12     1880.90  0
 2.70100E-03   5.62945E-04   8.83273E-05   1.37556E-04   2.28202E-12     1826.67  0
 2.72100E-03   5.55641E-04   8.46069E-05   1.37012E-04   2.14763E-12     1783.10  0
 2.74100E-03   5.51860E-04   8.23227E-05   1.36354E-04   2.01593E-12     1748.00  0
 2.76100E-03   5.44690E-04   7.88380E-05   1.35377E-04   1.88723E-12     1719.94  0
 2.78100E-03   5.41584E-04   7.63902E-05   1.34382E-04   1.76251E-12     1697.21  0
 2.80100E-03   5.34398E-04   7.32274E-05   1.30919E-04   1.58744E-12     1678.21  0
 2.82100E-03   5.31384E-04   7.05665E-05   1.30365E-04   1.45586E-12     1662.33  0
 2.84100E-03   5.24137E-04   6.83327E-05   1.30608E-04   1.33509E-12     1649.60  0
 2.86100E-03   5.21063E-04   6.55464E-05   1.31294E-04   1.22272E-12     1639.48  0
 2.88100E-03   5.13593E-04   6.33852E-05   1.31526E-04   1.11740E-12     1631.92  0
 2.90100E-03   5.09124E-04   6.07223E-05   1.31237E-04   1.01858E-12     1626.75  0
 2.92100E-03   5.02721E-04   5.85269E-05   1.29155E-04   9.25746E-13     1623.76  0
 2.94100E-03   4.96137E-04   5.60305E-05   1.25616E-04   8.38626E-13     1622.83  0
 2.96100E-03   4.91319E-04   5.37451E-05   1.24253E-04   7.56799E-13     1622.45  0
 2.98100E-03   4.83429E-04   5.15907E-05   1.23240E-04   6.80090E-13     1621.94  0
 3.00100E-03   4.65598E-04   4.88948E-05   1.20643E-04   6.02281E-13     1621.18  0
 3.02100E-03   4.51772E-04   4.72140E-05   1.20312E-04   5.35419E-13     1620.42  0
 3.04100E-03   4.35700E-04   4.44413E-05   1.15607E-04   4.72987E-13     1619.55  0
 3.06100E-03   4.22584E-04   4.29231E-05   1.12172E-04   4.93375E-13     1618.58  1
 3.08100E-03   4.26079E-05   1.03921E-04   4.41540E-05   6.06441E-13     1849.15  1
 3.10100E-03   7.31552E-05   1.08841E-04   5.82025E-05   7.12201E-13     2542.65  1
 3.12100E-03   1.04029E-04   1.10047E-04   6.36684E-05   8.28867E-13     2760.09  1
 3.14100E-03   1.33975E-04   1.10905E-04   7.59111E-05   9.55758E-13     2866.77  1
 3.16100E-03   1.64933E-04   1.11699E-04   8.34019E-05   1.09823E-12     2943.84  1
 3.18100E-03   5.08385E-04   1.12253E-04   1.60671E-04   1.26178E-12     2986.83  1
 3.20100E-03   4.98373E-04   1.12414E-04   1.59434E-04   1.44464E-12     2995.20  1
 3.22100E-03   4.94367E-04   1.12824E-04   1.61717E-04   1.62964E-12     3059.03  1
 3.24100E-03   4.85531E-04   1.13223E-04   1.59262E-04   1.81027E-12     3110.37  1
 3.26100E-03   4.76455E-04   1.13377E-04   1.58375E-04   1.98482E-12     3140.19  1
 3.28100E-03   4.66731E-04   1.13533E-04   1.57513E-04   2.16201E-12     3120.50  1
 3.30100E-03   4.56165E-04   1.13778E-04   1.55278E-04   2.34243E-12     3135.98  1
 3.32100E-03   4.44560E-04   1.13833E-04   1.50846E-04   2.51714E-12     3128.86  1
 3.34100E-03   4.32443E-04   1.13902E-04   1.49112E-04   2.69433E-12     3094.61  1
 3.36100E-03   4.37548E-04   1.13983E-04   1.47680E-04   2.86613E-12     3119.55  1
 3.38100E-03   4.61925E-04   1.13900E-04   1.46647E-04   3.02871E-12     3117.43  1
 3.40100E-03   4.84921E-04   1.13812E-04   1.46298E-04   3.18255E-12     3105.35  1
 3.42100E-03   5.10565E-04   1.13744E-04   1.46415E-04   3.33043E-12     3080.17  1
 3.44100E-03   5.32583E-04   1.13585E-04   1.46422E-04   3.46603E-12     3085.88  1
 3.46100E-03   5.59106E-04   1.13460E-04   1.46338E-04   3.59019E-12     3088.80  1
 3.48100E-03   5.79722E-04   1.13211E-04   1.46163E-04   3.70195E-12     3043.74  1
 3.50099E-03   6.01921E-04   1.12861E-04   1.46013E-04   3.80054E-12     3031.56  1
 3.52099E-03   6.24763E-04   1.12540E-04   1.45900E-04   3.88369E-12     3013.30  1
 3.54099E-03   6.43554E-04   1.12064E-04   1.45777E-04   3.95438E-12     2948.50  1
 3.56099E-03   6.68680E-04   1.11644E-04   1.45665E-04   4.01101E-12     2918.77  1
 3.58099E-03   6.84788E-04   1.11040E-04   1.45418E-04   4.05733E-12     2906.78  1
 3.60099E-03   7.09869E-04   1.10581E-04   1.44536E-04   3.92125E-12     2840.44  0
 3.62099E-03   7.06630E-04   1.08365E-04   1.46548E-04   3.77085E-12     2422.76  0
 3.64099E-03   7.04947E-04   1.04949E-04   1.44777E-04   3.61201E-12     2204.37  0
 3.66099E-03   6.98432E-04   1.02420E-04   1.43756E-04   3.44755E-12     2070.73  0
 3.68099E-03   6.95395E-04   9.82109E-05   1.43192E-04   3.28341E-12     1976.83  0
 3.70099E-03   6.90066E-04   9.41937E-05   1.42637E-04   3.12017E-12     1906.73  0
 3.72099E-03   6.85348E-04   9.07349E-05   1.41998E-04   2.95983E-12     1853.08  0
 3.74099E-03   6.82496E-04   8.77081E-05   1.41317E-04   2.80290E-12     1809.88  0
 3.76099E-03   6.75109E-04   8.36585E-05   1.40586E-04   2.64988E-12     1774.60  0
 3.78099E-03   6.72196E-04   8.02594E-05   1.39697E-04   2.50000E-12     1744.96  0
 3.80099E-03   6.61246E-04   7.74501E-05   1.38110E-04   2.28323E-12     1719.53  0
 3.82099E-03   6.60300E-04   7.41595E-05   1.42428E-04   2.12351E-12     1695.07  0
 3.84099E-03   6.56849E-04   7.22480E-05   1.41806E-04   1.97235E-12     1674.93  0
 3.86099E-03   6.48939E-04   6.90896E-05   1.40436E-04   1.82765E-12     1658.17  0
 3.88099E-03   6.44709E-04   6.73374E-05   1.36958E-04   1.68996E-12     1645.59  0
 3.90099E-03   6.36087E-04   6.42007E-05   1.35755E-04   1.55815E-12     1636.55  0
 3.92099E-03   6.28814E-04   6.26158E-05   1.34894E-04   1.43298E-12     1630.05  0
 3.94099E-03   6.21860E-04   5.96609E-05   1.34108E-04   1.31456E-12     1625.74  0
 3.96099E-03   6.08206E-04   5.80758E-05   1.33169E-04   1.20261E-12     1623.42  0
 3.98099E-03   6.01521E-04   5.54955E-05   1.31895E-04   1.09711E-12     1622.80  0
 4.00099E-03   5.85467E-04   5.32290E-05   1.27193E-04   9.79106E-13     1622.38  0
 4.02099E-03   5.76690E-04   5.11876E-05   1.25663E-04   8.82971E-13     1621.84  0
 4.04099E-03   5.65361E-04   4.90359E-05   1.24357E-04   7.94094E-13     1621.19  0
 4.06099E-03   5.53884E-04   4.76523E-05   1.22327E-04   7.11418E-13     1620.41  0
 4.08099E-03   5.42350E-04   4.49626E-05   1.17903E-04   6.34135E-13     1619.54  0
 4.10099E-03   5.27125E-04   4.34743E-05   1.13718E-04   6.55073E-13     1618.56  1
 4.12099E-03   4.48257E-05   1.04580E-04   4.15790E-05   7.55846E-13     1869.01  1
 4.14099E-03   7.95526E-05   1.09265E-04   5.95107E-05   8.55426E-13     2625.10  1
 4.16100E-03   1.11521E-04   1.10573E-04   6.80445E-05   9.65357E-13     2882.38  1
 4.18100E-03   1.46010E-04   1.11369E-04   7.73058E-05   1.08904E-12     2998.53  1
 4.20100E-03   6.05494E-04   1.11738E-04   1.69589E-04   1.23551E-12     2991.45  1
 4.22100E-03   5.97128E-04   1.12361E-04   1.69238E-04   1.38966E-12     3078.60  1
 4.24100E-03   5.88643E-04   1.12958E-04   1.66611E-04   1.54259E-12     3141.63  1
 4.26100E-03   5.79990E-04   1.13187E-04   1.64020E-04   1.70384E-12     3125.67  1
 4.28100E-03   5.71023E-04   1.13394E-04   1.62942E-04   1.88138E-12     3141.30  1
 4.30100E-03   5.61097E-04   1.13582E-04   1.65222E-04   2.06029E-12     3157.86  1
 4.32100E-03   5.51176E-04   1.13784E-04   1.64775E-04   2.24044E-12     3149.82  1
 4.34100E-03   5.40548E-04   1.13994E-04   1.61006E-04   2.42748E-12     3161.21  1
 4.36100E-03   5.28497E-04   1.14129E-04   1.59031E-04   2.61389E-12     3184.43  1
 4.38100E-03   5.15747E-04   1.14207E-04   1.57647E-04   2.79593E-12     3161.61  1
 4.40100E-03   4.98970E-04   1.14288E-04   1.56085E-04   2.97284E-12     3145.12  1
 4.42100E-03   4.91445E-04   1.14236E-04   1.50626E-04   3.14659E-12     3166.47  1
 4.44100E-03   4.88878E-04   1.14401E-04   1.51118E-04   3.31950E-12     3172.46  1
 4.46100E-03   5.15887E-04   1.14483E-04   1.51635E-04   3.48226E-12     3178.41  1
 4.48100E-03   5.40584E-04   1.14332E-04   1.52386E-04   3.63991E-12     3151.52  1
 4.50100E-03   5.67514E-04   1.14304E-04   1.52909E-04   3.78979E-12     3167.27  1
 4.52100E-03   5.94395E-04   1.14100E-04   1.53285E-04   3.92471E-12     3164.79  1
 4.54100E-03   6.21756E-04   1.14016E-04   1.53569E-04   4.05692E-12     3157.68  1
 4.56100E-03   6.30041E-04   1.13901E-04   1.53734E-04   4.17507E-12     3157.06  1
 4.58100E-03   6.55943E-04   1.13634E-04   1.53796E-04   4.28156E-12     3132.60  1
 4.60100E-03   6.81418E-04   1.13397E-04   1.53747E-04   4.37677E-12     3076.54  1
 4.62100E-03   7.04822E-04   1.13096E-04   1.53771E-04   4.46084E-12     3084.51  1
 4.64100E-03   7.31601E-04   1.12784E-04   1.53715E-04   4.53097E-12     3055.09  1
 4.66100E-03   7.39539E-04   1.12462E-04   1.53619E-04   4.58923E-12     3018.42  1
 4.68100E-03   7.64655E-04   1.12032E-04   1.53465E-04   4.63274E-12     2987.53  1
 4.70100E-03   7.90923E-04   1.11523E-04   1.53262E-04   4.66613E-12     2942.68  1
 4.72100E-03   8.13731E-04   1.11139E-04   1.53010E-04   4.68072E-12     2902.70  1
