# Melt Pool Geometry History
# time(s)  length(m)  depth(m)  width(m)  volume(m3)  Tpeak(K)  laser_on
 2.10000E-05   0.00000E+00   0.00000E+00   0.00000E+00   8.21533E-14      293.00  1
 4.10000E-05   3.77283E-05   1.01434E-04   3.90736E-05   2.34598E-13     1837.57  1
 6.10000E-05   6.79934E-05   1.09350E-04   6.00283E-05   3.40909E-13     2778.17  1
 8.10000E-05   8.56600E-05   1.12254E-04   6.88630E-05   4.69115E-13     3372.59  1
 1.01000E-04   1.04390E-04   1.13333E-04   7.89501E-05   5.84963E-13     3676.62  1
 1.21000E-04   1.19346E-04   1.14635E-04   8.27085E-05   7.04887E-13     3782.41  1
 1.41000E-04   1.38608E-04   1.15282E-04   8.41711E-05   8.29559E-13     3920.52  1
 1.61000E-04   1.52624E-04   1.15828E-04   8.51130E-05   9.48627E-13     3973.03  1
 1.81000E-04   1.71866E-04   1.16026E-04   8.57508E-05   1.06891E-12     3976.42  1
 2.01000E-04   1.87847E-04   1.15953E-04   8.63746E-05   1.22452E-12     3940.21  1
 2.21000E-04   2.07175E-04   1.15317E-04   9.24039E-05   1.21548E-12     3872.47  0
 2.41000E-04   2.09306E-04   1.13951E-04   9.45101E-05   1.18904E-12     3244.45  0
 2.61000E-04   2.10216E-04   1.12898E-04   9.58257E-05   1.15443E-12     2917.95  0
 2.81000E-04   2.10880E-04   1.09687E-04   9.68874E-05   1.12658E-12     2699.38  0
 3.01000E-04   2.11144E-04   1.07832E-04   1.00878E-04   1.09478E-12     2524.97  0
 3.21000E-04   2.11332E-04   1.04209E-04   1.02476E-04   1.06160E-12     2378.90  0
 3.41000E-04   2.11160E-04   1.01611E-04   1.03201E-04   1.02691E-12     2258.56  0
 3.61000E-04   2.11056E-04   9.83600E-05   1.03622E-04   9.90535E-13     2161.66  0
 3.81000E-04   2.10867E-04   9.48423E-05   1.03842E-04   9.53035E-13     2080.49  0
 4.01000E-04   2.10523E-04   9.24207E-05   1.03914E-04   9.15496E-13     2011.45  0
 4.21000E-04   2.10092E-04   8.84326E-05   1.03855E-04   8.78392E-13     1953.08  0
 4.41000E-04   2.09579E-04   8.47562E-05   1.03649E-04   8.41591E-13     1902.73  0
 4.61000E-04   2.08936E-04   8.20208E-05   1.03300E-04   8.05383E-13     1859.21  0
 4.81000E-04   2.08184E-04   7.83455E-05   1.02810E-04   7.69275E-13     1821.36  0
 5.01000E-04   2.07358E-04   7.46998E-05   1.02183E-04   7.32842E-13     1788.57  0
 5.21000E-04   2.06558E-04   7.21044E-05   1.01441E-04   6.95755E-13     1759.94  0
 5.41000E-04   2.05902E-04   6.84213E-05   1.00597E-04   6.58060E-13     1734.61  0
 5.61000E-04   2.05292E-04   6.49120E-05   9.96861E-05   6.19219E-13     1712.42  0
 5.81000E-04   2.04734E-04   6.25366E-05   9.87581E-05   5.79623E-13     1693.20  0
 6.01000E-04   2.03274E-04   5.85039E-05   9.57511E-05   5.08560E-13     1676.00  0
 6.21000E-04   2.03808E-04   5.52803E-05   1.01760E-04   4.66213E-13     1661.26  0
 6.41000E-04   2.03642E-04   5.28216E-05   1.02152E-04   4.25024E-13     1648.72  0
 6.61000E-04   2.03470E-04   4.92586E-05   1.02408E-04   3.84690E-13     1638.40  0
 6.81000E-04   2.03284E-04   4.67690E-05   1.02577E-04   3.45751E-13     1630.61  0
 7.01000E-04   2.03073E-04   4.37039E-05   1.02687E-04   3.08703E-13     1625.36  0
 7.21000E-04   2.02835E-04   4.08844E-05   1.02752E-04   3.60939E-13     1622.97  1
 7.41000E-04   4.13469E-05   1.04270E-04   4.32074E-05   4.92600E-13     1858.35  1
 7.61000E-04   7.20171E-05   1.10400E-04   6.29137E-05   5.98139E-13     2906.31  1
 7.81000E-04   8.93067E-05   1.12946E-04   7.26471E-05   7.08608E-13     3408.31  1
 8.01000E-04   2.76570E-04   1.13941E-04   1.68138E-04   8.47960E-13     3578.79  1
 8.21000E-04   2.66390E-04   1.15407E-04   1.76396E-04   9.88201E-13     3713.84  1
 8.41000E-04   2.56429E-04   1.16741E-04   1.77850E-04   1.13162E-12     3878.13  1
 8.61000E-04   2.48686E-04   1.17564E-04   1.78587E-04   1.27839E-12     3936.33  1
 8.81000E-04   2.40660E-04   1.17989E-04   1.79167E-04   1.42956E-12     3989.04  1
 9.01000E-04   2.33939E-04   1.18417E-04   1.79647E-04   1.58165E-12     4030.00  1
 9.21000E-04   2.29533E-04   1.18782E-04   1.80040E-04   1.74504E-12     4045.44  1
 9.41000E-04   2.33954E-04   1.19098E-04   1.84242E-04   1.90686E-12     4087.78  1
 9.61000E-04   2.46743E-04   1.19353E-04   1.82487E-04   2.06476E-12     4082.70  1
 9.81000E-04   2.60110E-04   1.19375E-04   1.82564E-04   2.22799E-12     4113.83  1
 1.00100E-03   2.73526E-04   1.19411E-04   1.83439E-04   2.38016E-12     4110.75  1
 1.02100E-03   2.86369E-04   1.19235E-04   1.84342E-04   2.53305E-12     4092.62  1
 1.04100E-03   3.03312E-04   1.19031E-04   1.85206E-04   2.67300E-12     4069.19  1
 1.06100E-03   3.16600E-04   1.18759E-04   1.86019E-04   2.81776E-12     4013.28  1
 1.08100E-03   3.33735E-04   1.18394E-04   1.87092E-04   2.95153E-12     3988.33  1
 1.10100E-03   3.51157E-04   1.18012E-04   1.88295E-04   3.08325E-12     3925.80  1
 1.12100E-03   3.64466E-04   1.17597E-04   1.89496E-04   3.20225E-12     3897.59  1
 1.14100E-03   3.81214E-04   1.17205E-04   1.89957E-04   3.18864E-12     3884.18  0
 1.16100E-03   3.82988E-04   1.16240E-04   1.92775E-04   3.16577E-12     3289.63  0
 1.18100E-03   3.83392E-04   1.14604E-04   1.94357E-04   3.12461E-12     2959.12  0
 1.20100E-03   3.83478E-04   1.13457E-04   1.93465E-04   3.08528E-12     2735.77  0
 1.22100E-03   3.85514E-04   1.11341E-04   1.96037E-04   3.01987E-12     2567.84  0
 1.24100E-03   3.85979E-04   1.09158E-04   1.97933E-04   2.94808E-12     2429.31  0
 1.26100E-03   3.86169E-04   1.07606E-04   1.99453E-04   2.87324E-12     2318.88  0
 1.28100E-03   3.86257E-04   1.04588E-04   2.00517E-04   2.79596E-12     2225.14  0
 1.30100E-03   3.86224E-04   1.02960E-04   2.01293E-04   2.71236E-12     2147.62  0
 1.32100E-03   3.86132E-04   1.00116E-04   2.01709E-04   2.62594E-12     2080.67  0
 1.34100E-03   3.85994E-04   9.83240E-05   2.01849E-04   2.53938E-12     2021.98  0
 1.36100E-03   3.85816E-04   9.57291E-05   2.01760E-04   2.45098E-12     1971.71  0
 1.38100E-03   3.85586E-04   9.36704E-05   2.01487E-04   2.36204E-12     1928.08  0
 1.40100E-03   3.85301E-04   9.15281E-05   2.00955E-04   2.27251E-12     1888.97  0
 1.42100E-03   3.84960E-04   8.90243E-05   2.00196E-04   2.18215E-12     1853.81  0
 1.44100E-03   3.84573E-04   8.74652E-05   1.99232E-04   2.09182E-12     1822.42  0
 1.46100E-03   3.84151E-04   8.44421E-05   1.98173E-04   2.00122E-12     1794.39  0
 1.48100E-03   3.83710E-04   8.28720E-05   1.96474E-04   1.91039E-12     1769.43  0
 1.50100E-03   3.83272E-04   8.00000E-05   1.94453E-04   1.81945E-12     1747.06  0
 1.52100E-03   3.82886E-04   7.82189E-05   1.91350E-04   1.72863E-12     1727.39  0
 1.54100E-03   3.82636E-04   7.56219E-05   1.89004E-04   1.63813E-12     1710.01  0
 1.56100E-03   3.82465E-04   7.35743E-05   1.87510E-04   1.54806E-12     1694.66  0
 1.58100E-03   3.82269E-04   7.15262E-05   1.85866E-04   1.45953E-12     1681.07  0
 1.60100E-03   3.69311E-04   6.89439E-05   1.81585E-04   1.32131E-12     1668.98  0
 1.62100E-03   3.62464E-04   6.73608E-05   1.87433E-04   1.22870E-12     1658.85  0
 1.64100E-03   3.54874E-04   6.44440E-05   1.85065E-04   1.22455E-12     1649.71  1
 1.66100E-03   5.03691E-05   1.04078E-04   4.13465E-05   1.31597E-12     1852.81  1
 1.68100E-03   7.05341E-05   1.10447E-04   6.55968E-05   1.37783E-12     2842.21  1
 1.70100E-03   9.05520E-05   1.13035E-04   7.30476E-05   1.45179E-12     3381.60  1
 1.72100E-03   4.01393E-04   1.14801E-04   2.33187E-04   1.55344E-12     3625.19  1
 1.74100E-03   3.98300E-04   1.16431E-04   2.33051E-04   1.66426E-12     3802.45  1
 1.76100E-03   3.94829E-04   1.17446E-04   2.32780E-04   1.78085E-12     3907.93  1
 1.78100E-03   3.89919E-04   1.17983E-04   2.32498E-04   1.91113E-12     4025.59  1
 1.80100E-03   3.86676E-04   1.18250E-04   2.35717E-04   2.05110E-12     4032.21  1
 1.82100E-03   3.83001E-04   1.18820E-04   2.34517E-04   2.18261E-12     4073.98  1
 1.84100E-03   3.78917E-04   1.19450E-04   2.31121E-04   2.33224E-12     4140.68  1
 1.86100E-03   3.76727E-04   1.20371E-04   2.30064E-04   2.48630E-12     4168.02  1
 1.88100E-03   3.70466E-04   1.20907E-04   2.29595E-04   2.64083E-12     4219.79  1
 1.90100E-03   3.67920E-04   1.21240E-04   2.28552E-04   2.80151E-12     4252.74  1
 1.92100E-03   3.62135E-04   1.21575E-04   2.26579E-04   2.96554E-12     4262.58  1
 1.94100E-03   3.58924E-04   1.21759E-04   2.26472E-04   3.13211E-12     4320.97  1
 1.96100E-03   3.54493E-04   1.21910E-04   2.27043E-04   3.29834E-12     4317.90  1
 1.98100E-03   3.50575E-04   1.21989E-04   2.27603E-04   3.47392E-12     4333.31  1
 2.00100E-03   3.59759E-04   1.21930E-04   2.31424E-04   3.68734E-12     4312.13  1
 2.02100E-03   3.72392E-04   1.21887E-04   2.38141E-04   3.84811E-12     4301.47  1
 2.04100E-03   3.82861E-04   1.21873E-04   2.40445E-04   4.01071E-12     4307.45  1
 2.06100E-03   3.96365E-04   1.21818E-04   2.41663E-04   4.16606E-12     4240.68  1
 2.08100E-03   4.10058E-04   1.21719E-04   2.42500E-04   4.32325E-12     4218.94  1
 2.10100E-03   4.21642E-04   1.21517E-04   2.43042E-04   4.47288E-12     4157.08  1
 2.12100E-03   4.37749E-04   1.21240E-04   2.43406E-04   4.61581E-12     4115.16  1
 2.14100E-03   4.50094E-04   1.20874E-04   2.43644E-04   4.75173E-12     4088.35  1
 2.16100E-03   4.66619E-04   1.20474E-04   2.43823E-04   4.87669E-12     4028.26  1
 2.18100E-03   4.79314E-04   1.20026E-04   2.43907E-04   4.99920E-12     4016.21  1
 2.20100E-03   4.96175E-04   1.19178E-04   2.43751E-04   5.12266E-12     3919.07  1
 2.22100E-03   5.09028E-04   1.18850E-04   2.44618E-04   5.22440E-12     3910.37  1
 2.24100E-03   5.26216E-04   1.18394E-04   2.43015E-04   5.30942E-12     3910.23  1
 2.26100E-03   5.39538E-04   1.17972E-04   2.42470E-04   5.25021E-12     3865.50  0
 2.28100E-03   5.40090E-04   1.17470E-04   2.42122E-04   5.17941E-12     3263.38  0
 2.30100E-03   5.40382E-04   1.15558E-04   2.41776E-04   5.08997E-12     2925.74  0
 2.32100E-03   5.40568E-04   1.14284E-04   2.41370E-04   4.99067E-12     2697.89  0
 2.34100E-03   5.40687E-04   1.13090E-04   2.40777E-04   4.87945E-12     2533.45  0
 2.36100E-03   5.40739E-04   1.10585E-04   2.40105E-04   4.76752E-12     2403.27  0
 2.38100E-03   5.40715E-04   1.08759E-04   2.39343E-04   4.64392E-12     2300.74  0
 2.40100E-03   5.40414E-04   1.06992E-04   2.38056E-04   4.52004E-12     2213.18  0
 2.42100E-03   5.42320E-04   1.04365E-04   2.36184E-04   4.39110E-12     2138.29  0
 2.44100E-03   5.42989E-04   1.02871E-04   2.33470E-04   4.25690E-12     2074.50  0
 2.46100E-03   5.42919E-04   1.00331E-04   2.31907E-04   4.12071E-12     2017.73  0
 2.48100E-03   5.42581E-04   9.86869E-05   2.30428E-04   3.98449E-12     1969.17  0
 2.50100E-03   5.40083E-04   9.71628E-05   2.28702E-04   3.84904E-12     1927.04  0
 2.52100E-03   5.33032E-04   9.46487E-05   2.27541E-04   3.71285E-12     1890.57  0
 2.54100E-03   5.24823E-04   9.32849E-05   2.22387E-04   3.57769E-12     1858.14  0
 2.56100E-03   5.18612E-04   9.12398E-05   2.18949E-04   3.44321E-12     1829.32  0
 2.58100E-03   5.13433E-04   8.92816E-05   2.14867E-04   3.30954E-12     1803.83  0
 2.60100E-03   5.04736E-04   8.76872E-05   2.10594E-04   3.11737E-12     1780.42  0
 2.62100E-03   5.06929E-04   8.53727E-05   2.12942E-04   2.97459E-12     1759.77  0
 2.64100E-03   5.00318E-04   8.38539E-05   2.11974E-04   2.83523E-12     1741.08  0
 2.66100E-03   4.97892E-04   8.26049E-05   2.09315E-04   2.69933E-12     1724.12  0
 2.68100E-03   4.91183E-04   8.00710E-05   2.06582E-04   2.56552E-12     1708.60  0
 2.70100E-03   4.88167E-04   7.86912E-05   2.05385E-04   2.43486E-12     1694.68  0
 2.72100E-03   4.81696E-04   7.73257E-05   2.04305E-04   2.30704E-12     1682.52  0
 2.74100E-03   4.77520E-04   7.48556E-05   2.03287E-04   2.18225E-12     1671.84  0
 2.76100E-03   4.73142E-04   7.35475E-05   2.01807E-04   2.14704E-12     1662.37  1
 2.78100E-03   4.08930E-05   1.04313E-04   4.84635E-05   2.19946E-12     1875.13  1
 2.80100E-03   6.79616E-05   1.09862E-04   6.19451E-05   2.21711E-12     2723.31  1
 2.82100E-03   9.02176E-05   1.12666E-04   7.36866E-05   2.26159E-12     3296.01  1
 2.84100E-03   5.32767E-04   1.14563E-04   2.46524E-04   2.32633E-12     3592.83  1
 2.86100E-03   5.29656E-04   1.16278E-04   2.46792E-04   2.40644E-12     3778.24  1
 2.88100E-03   5.27986E-04   1.17392E-04   2.43696E-04   2.49969E-12     3918.38  1
 2.90100E-03   5.22684E-04   1.18002E-04   2.42463E-04   2.60442E-12     4041.23  1
 2.92100E-03   5.20274E-04   1.18579E-04   2.41791E-04   2.70648E-12     4084.84  1
 2.94100E-03   5.18371E-04   1.19322E-04   2.41224E-04   2.81555E-12     4160.34  1
 2.96100E-03   5.12575E-04   1.20242E-04   2.40326E-04   2.93921E-12     4187.02  1
 2.98100E-03   5.10558E-04   1.20857E-04   2.41465E-04   3.06225E-12     4218.69  1
 3.00100E-03   5.06695E-04   1.21200E-04   2.40292E-04   3.21368E-12     4225.52  1
 3.02100E-03   5.02570E-04   1.21726E-04   2.44761E-04   3.36302E-12     4226.39  1
 3.04100E-03   5.00381E-04   1.22183E-04   2.45831E-04   3.51245E-12     4267.25  1
 3.06100E-03   4.94884E-04   1.22574E-04   2.44897E-04   3.66224E-12     4268.71  1
 3.08100E-03   4.91471E-04   1.22759E-04   2.41436E-04   3.82044E-12     4289.72  1
 3.10100E-03   4.88919E-04   1.22972E-04   2.40502E-04   3.98600E-12     4320.15  1
 3.12100E-03   4.82370E-04   1.23178E-04   2.39756E-04   4.15167E-12     4307.48  1
 3.14100E-03   4.79638E-04   1.23316E-04   2.39081E-04   4.32267E-12     4344.21  1
 3.16100E-03   4.74381E-04   1.23426E-04   2.38307E-04   4.49507E-12     4337.56  1
 3.18100E-03   4.70032E-04   1.23520E-04   2.36278E-04   4.66484E-12     4348.02  1
 3.20100E-03   4.67185E-04   1.23265E-04   2.36731E-04   4.87511E-12     4351.00  1
 3.22100E-03   4.60376E-04   1.23347E-04   2.40382E-04   5.04367E-12     4340.36  1
 3.24100E-03   4.57492E-04   1.23357E-04   2.42067E-04   5.21105E-12     4375.88  1
 3.26100E-03   4.63075E-04   1.23373E-04   2.43074E-04   5.37690E-12     4349.05  1
 3.28100E-03   4.74830E-04   1.23388E-04   2.43781E-04   5.53421E-12     4338.37  1
 3.30100E-03   4.90552E-04   1.23395E-04   2.44378E-04   5.69346E-12     4317.78  1
 3.32100E-03   5.03242E-04   1.23343E-04   2.44892E-04   5.84155E-12     4278.82  1
 3.34100E-03   5.19212E-04   1.23263E-04   2.45364E-04   5.98927E-12     4271.90  1
 3.36100E-03   5.33440E-04   1.23115E-04   2.45766E-04   6.12442E-12     4222.74  1
 3.38100E-03   5.46962E-04   1.22948E-04   2.46125E-04   6.25631E-12     4217.32  1
 3.40100E-03   5.60079E-04   1.22690E-04   2.46386E-04   6.38321E-12     4189.73  1
 3.42100E-03   5.76950E-04   1.22369E-04   2.46754E-04   6.50641E-12     4153.67  1
 3.44100E-03   5.90099E-04   1.21973E-04   2.48736E-04   6.62680E-12     4139.87  1
 3.46100E-03   6.06400E-04   1.21501E-04   2.50033E-04   6.73008E-12     4090.75  1
 3.48100E-03   6.19166E-04   1.21024E-04   2.50709E-04   6.83549E-12     4092.65  1
 3.50099E-03   6.36021E-04   1.20503E-04   2.51065E-04   6.92135E-12     4058.96  1
 3.52099E-03   6.49010E-04   1.19978E-04   2.51308E-04   7.00941E-12     4035.04  1
 3.54099E-03   6.65966E-04   1.19482E-04   2.51398E-04   7.07424E-12     4017.95  1
 3.56099E-03   6.79229E-04   1.19141E-04   2.51462E-04   7.14301E-12     3967.94  1
 3.58099E-03   6.95985E-04   1.18698E-04   2.51441E-04   7.05525E-12     3969.71  0
 3.60099E-03   6.97195E-04   1.17855E-04   2.51069E-04   6.93221E-12     3301.68  0
 3.62099E-03   6.97449E-04   1.16557E-04   2.54904E-04   6.82371E-12     2946.49  0
 3.64099E-03   6.97431E-04   1.14683E-04   2.55472E-04   6.68633E-12     2707.09  0
 3.66099E-03   6.97183E-04   1.13540E-04   2.55893E-04   6.53343E-12     2523.32  0
 3.68099E-03   6.96716E-04   1.11647E-04   2.56174E-04   6.37545E-12     2383.70  0
 3.70099E-03   6.88636E-04   1.09370E-04   2.55985E-04   6.20994E-12     2272.26  0
 3.72099E-03   6.81604E-04   1.07940E-04   2.55510E-04   6.04241E-12     2179.80  0
 3.74099E-03   6.77354E-04   1.05275E-04   2.54411E-04   5.87143E-12     2104.33  0
 3.76099E-03   6.70616E-04   1.03585E-04   2.51947E-04   5.69918E-12     2040.06  0
 3.78099E-03   6.67255E-04   1.01579E-04   2.49722E-04   5.52651E-12     1984.41  0
 3.80099E-03   6.60761E-04   9.88953E-05   2.47603E-04   5.30851E-12     1936.51  0
 3.82099E-03   6.57647E-04   9.76109E-05   2.52252E-04   5.13979E-12     1895.97  0
 3.84099E-03   6.51502E-04   9.50102E-05   2.51290E-04   4.96663E-12     1861.03  0
 3.86099E-03   6.47310E-04   9.36417E-05   2.47512E-04   4.79285E-12     1829.79  0
 3.88099E-03   6.44434E-04   9.22019E-05   2.46185E-04   4.61918E-12     1802.39  0
 3.90099E-03   6.37382E-04   8.98239E-05   2.45310E-04   4.44616E-12     1778.30  0
 3.92099E-03   6.34602E-04   8.85304E-05   2.44390E-04   4.27499E-12     1757.35  0
 3.94099E-03   6.29444E-04   8.70047E-05   2.43484E-04   4.10471E-12     1738.82  0
 3.96099E-03   6.25390E-04   8.47871E-05   2.42182E-04   3.93667E-12     1722.51  0
 3.98099E-03   6.23102E-04   8.35041E-05   2.38684E-04   3.77083E-12     1707.87  0
 4.00099E-03   6.16606E-04   8.17687E-05   2.33231E-04   3.54991E-12     1694.46  0
 4.02099E-03   6.15209E-04   7.97621E-05   2.41012E-04   3.38277E-12     1682.97  0
 4.04099E-03   6.08942E-04   7.85541E-05   2.37226E-04   3.21951E-12     1672.56  0
 4.06099E-03   6.06001E-04   7.72137E-05   2.35375E-04   3.06088E-12     1663.33  0
 4.08099E-03   6.03543E-04   7.49677E-05   2.34314E-04   2.98693E-12     1655.15  1
 4.10099E-03   4.17222E-05   1.04115E-04   4.34298E-05   3.00629E-12     1855.53  1
 4.12099E-03   6.81916E-05   1.10268E-04   6.22126E-05   2.99455E-12     2806.06  1
 4.14099E-03   8.93176E-05   1.12802E-04   7.23742E-05   2.98579E-12     3286.42  1
 4.16100E-03   1.09267E-04   1.14228E-04   7.56766E-05   3.00909E-12     3607.88  1
 4.18100E-03   6.79985E-04   1.15854E-04   2.61624E-04   3.06164E-12     3747.59  1
 4.20100E-03   6.74394E-04   1.16823E-04   2.60861E-04   3.12253E-12     3873.47  1
 4.22100E-03   6.71326E-04   1.17585E-04   2.60398E-04   3.18875E-12     3943.67  1
 4.24100E-03   6.69082E-04   1.18008E-04   2.59582E-04   3.26717E-12     4071.24  1
 4.26100E-03   6.62862E-04   1.18553E-04   2.56214E-04   3.35882E-12     4154.64  1
 4.28100E-03   6.60697E-04   1.19361E-04   2.59220E-04   3.45564E-12     4213.55  1
 4.30100E-03   6.55312E-04   1.20284E-04   2.59452E-04   3.56627E-12     4277.99  1
 4.32100E-03   6.52269E-04   1.21023E-04   2.59181E-04   3.67866E-12     4290.29  1
 4.34100E-03   6.50754E-04   1.21604E-04   2.58532E-04   3.79582E-12     4341.59  1
 4.36100E-03   6.45717E-04   1.22061E-04   2.56214E-04   3.91817E-12     4378.62  1
 4.38100E-03   6.44022E-04   1.22564E-04   2.53938E-04   4.04243E-12     4390.25  1
 4.40100E-03   6.37358E-04   1.22577E-04   2.53470E-04   4.21315E-12     4388.93  1
 4.42100E-03   6.35461E-04   1.22820E-04   2.56610E-04   4.35543E-12     4403.17  1
 4.44100E-03   6.31116E-04   1.22968E-04   2.56477E-04   4.49603E-12     4453.35  1
 4.46100E-03   6.28897E-04   1.23228E-04   2.52882E-04   4.64560E-12     4471.74  1
 4.48100E-03   6.25550E-04   1.23467E-04   2.51883E-04   4.79419E-12     4491.14  1
 4.50100E-03   6.21117E-04   1.23673E-04   2.51260E-04   4.95070E-12     4530.17  1
 4.52100E-03   6.18857E-04   1.23887E-04   2.50675E-04   5.10609E-12     4514.77  1
 4.54100E-03   6.12297E-04   1.24032E-04   2.49702E-04   5.26566E-12     4545.97  1
 4.56100E-03   6.09727E-04   1.24163E-04   2.46076E-04   5.44618E-12     4536.29  1
 4.58100E-03   6.03051E-04   1.24259E-04   2.48163E-04   5.61787E-12     4528.14  1
 4.60100E-03   5.94906E-04   1.24329E-04   2.47990E-04   5.82484E-12     4458.18  1
 4.62100E-03   5.87555E-04   1.24388E-04   2.53630E-04   5.99651E-12     4440.34  1
 4.64100E-03   5.83969E-04   1.24427E-04   2.53802E-04   6.15962E-12     4470.87  1
 4.66100E-03   5.76459E-04   1.24454E-04   2.53788E-04   6.32503E-12     4441.57  1
 4.68100E-03   5.73072E-04   1.24503E-04   2.54296E-04   6.48882E-12     4432.21  1
 4.70100E-03   5.67373E-04   1.24554E-04   2.54894E-04   6.64977E-12     4403.69  1
 4.72100E-03   5.80480E-04   1.24600E-04   2.55421E-04   6.80649E-12     4365.49  1
