# Melt Pool Geometry History
# time(s)  length(m)  depth(m)  width(m)  volume(m3)  Tpeak(K)  laser_on
 2.10000E-05   0.00000E+00   0.00000E+00   0.00000E+00   7.60222E-14      293.00  1
 4.10000E-05   4.40872E-05   1.00963E-04   3.43787E-05   2.30004E-13     1807.87  1
 6.10000E-05   7.13886E-05   1.08218E-04   6.10401E-05   3.46118E-13     2574.69  1
 8.10000E-05   9.38462E-05   1.09937E-04   7.09419E-05   4.75000E-13     2979.67  1
 1.01000E-04   1.16422E-04   1.11089E-04   7.48246E-05   6.03362E-13     3096.80  1
 1.21000E-04   1.37656E-04   1.11445E-04   7.68033E-05   7.27655E-13     3140.64  1
 1.41000E-04   1.58951E-04   1.11513E-04   7.84139E-05   8.51107E-13     3147.59  1
 1.61000E-04   1.80448E-04   1.11472E-04   7.90164E-05   9.74479E-13     3141.05  1
 1.81000E-04   2.01819E-04   1.11475E-04   7.95670E-05   1.09557E-12     3121.28  1
 2.01000E-04   2.22837E-04   1.11272E-04   7.97650E-05   1.22795E-12     3093.56  1
 2.21000E-04   2.43970E-04   1.11244E-04   8.50300E-05   1.34072E-12     3144.32  1
 2.41000E-04   2.67205E-04   1.11748E-04   8.60917E-05   1.45044E-12     3199.00  1
 2.61000E-04   2.87566E-04   1.11845E-04   8.68073E-05   1.40722E-12     3196.29  0
 2.81000E-04   2.88668E-04   1.09264E-04   8.74104E-05   1.35104E-12     2737.68  0
 3.01000E-04   2.88904E-04   1.07608E-04   8.79238E-05   1.29006E-12     2477.16  0
 3.21000E-04   2.88927E-04   1.03361E-04   8.83386E-05   1.22811E-12     2308.29  0
 3.41000E-04   2.88841E-04   9.91876E-05   8.86513E-05   1.16989E-12     2194.01  0
 3.61000E-04   2.88635E-04   9.54349E-05   8.88447E-05   1.11439E-12     2104.57  0
 3.81000E-04   2.88311E-04   9.19523E-05   8.88978E-05   1.06150E-12     2034.30  0
 4.01000E-04   2.85491E-04   8.77764E-05   8.78870E-05   1.00769E-12     1974.11  0
 4.21000E-04   2.91880E-04   8.33274E-05   8.82566E-05   9.62550E-13     1918.62  0
 4.41000E-04   2.92406E-04   7.90489E-05   8.88025E-05   9.14410E-13     1867.96  0
 4.61000E-04   2.92449E-04   7.51924E-05   8.89235E-05   8.65140E-13     1825.24  0
 4.81000E-04   2.92330E-04   7.19344E-05   8.87210E-05   8.14873E-13     1788.14  0
 5.01000E-04   2.92192E-04   6.81230E-05   8.83275E-05   7.64394E-13     1756.20  0
 5.21000E-04   2.92148E-04   6.42414E-05   8.78087E-05   7.14206E-13     1728.63  0
 5.41000E-04   2.92108E-04   6.11337E-05   8.72152E-05   6.63703E-13     1705.56  0
 5.61000E-04   2.92037E-04   5.80814E-05   8.65818E-05   6.13818E-13     1685.73  0
 5.81000E-04   2.91937E-04   5.44213E-05   8.59827E-05   5.64102E-13     1669.06  0
 6.01000E-04   2.90420E-04   5.19562E-05   8.40642E-05   5.00628E-13     1654.49  0
 6.21000E-04   2.91218E-04   4.86596E-05   8.47935E-05   4.52988E-13     1642.97  0
 6.41000E-04   2.91029E-04   4.58123E-05   8.47333E-05   4.07069E-13     1634.11  0
 6.61000E-04   2.90719E-04   4.33004E-05   8.46600E-05   3.63206E-13     1627.70  0
 6.81000E-04   2.83940E-04   4.03192E-05   8.45777E-05   3.21580E-13     1623.82  0
 7.01000E-04   2.76468E-04   3.82299E-05   8.44882E-05   2.82548E-13     1622.69  0
 7.21000E-04   2.61071E-04   3.54102E-05   8.43907E-05   2.46238E-13     1622.02  0
 7.41000E-04   2.46654E-04   3.34104E-05   8.42820E-05   2.12675E-13     1621.09  0
 7.61000E-04   2.32971E-04   3.09561E-05   8.41605E-05   2.68839E-13     1619.90  1
 7.81000E-04   4.35853E-05   1.03851E-04   4.21159E-05   3.87497E-13     1869.34  1
 8.01000E-04   7.09816E-05   1.09163E-04   6.20554E-05   5.00058E-13     2708.67  1
 8.21000E-04   9.51557E-05   1.11017E-04   6.94875E-05   6.09818E-13     3070.48  1
 8.41000E-04   1.19847E-04   1.11867E-04   7.21112E-05   7.21287E-13     3197.58  1
 8.61000E-04   1.39271E-04   1.12237E-04   7.36769E-05   8.28390E-13     3260.83  1
 8.81000E-04   1.60677E-04   1.12484E-04   7.48734E-05   9.35316E-13     3274.33  1
 9.01000E-04   1.81904E-04   1.12660E-04   7.59184E-05   1.04749E-12     3282.19  1
 9.21000E-04   2.03112E-04   1.12800E-04   7.68201E-05   1.16297E-12     3310.27  1
 9.41000E-04   2.24353E-04   1.12921E-04   7.76391E-05   1.27938E-12     3326.54  1
 9.61000E-04   2.45806E-04   1.13012E-04   7.84391E-05   1.39352E-12     3330.31  1
 9.81000E-04   2.70571E-04   1.13070E-04   7.92352E-05   1.51737E-12     3348.66  1
 1.00100E-03   2.88721E-04   1.12598E-04   8.22127E-05   1.68832E-12     3272.45  1
 1.02100E-03   3.11125E-04   1.12764E-04   8.85873E-05   1.81101E-12     3259.98  1
 1.04100E-03   3.31482E-04   1.12883E-04   9.06744E-05   1.92825E-12     3256.19  1
 1.06100E-03   3.51189E-04   1.12884E-04   9.18901E-05   2.03692E-12     3249.71  1
 1.08100E-03   3.71546E-04   1.12823E-04   9.28481E-05   2.14052E-12     3224.70  1
 1.10100E-03   3.91987E-04   1.12723E-04   9.36060E-05   2.25380E-12     3245.82  1
 1.12100E-03   4.12649E-04   1.12633E-04   9.74333E-05   2.36438E-12     3263.88  1
 1.14100E-03   4.33516E-04   1.12531E-04   9.91628E-05   2.47089E-12     3277.01  1
 1.16100E-03   4.57285E-04   1.12383E-04   9.99846E-05   2.56882E-12     3298.21  1
 1.18100E-03   4.76793E-04   1.12220E-04   1.00595E-04   2.66051E-12     3288.34  1
 1.20100E-03   4.95672E-04   1.12068E-04   1.01152E-04   2.74547E-12     3287.10  1
 1.22100E-03   5.22723E-04   1.11903E-04   1.01662E-04   2.82248E-12     3270.66  1
 1.24100E-03   5.43741E-04   1.11965E-04   1.02099E-04   2.74414E-12     3269.60  0
 1.26100E-03   5.45538E-04   1.09516E-04   1.02511E-04   2.65679E-12     2808.06  0
 1.28100E-03   5.45410E-04   1.07818E-04   1.02880E-04   2.56134E-12     2534.93  0
 1.30100E-03   5.43407E-04   1.03684E-04   1.03203E-04   2.46290E-12     2356.96  0
 1.32100E-03   5.40400E-04   1.00043E-04   1.03480E-04   2.36543E-12     2235.02  0
 1.34100E-03   5.38218E-04   9.70489E-05   1.03731E-04   2.26814E-12     2145.93  0
 1.36100E-03   5.35069E-04   9.30927E-05   1.03971E-04   2.17536E-12     2073.22  0
 1.38100E-03   5.28798E-04   8.89782E-05   1.04145E-04   2.08604E-12     2012.02  0
 1.40100E-03   5.23302E-04   8.50057E-05   1.02373E-04   1.96322E-12     1957.10  0
 1.42100E-03   5.21746E-04   8.22215E-05   1.04394E-04   1.87524E-12     1900.24  0
 1.44100E-03   5.14846E-04   7.83504E-05   1.05390E-04   1.78126E-12     1847.26  0
 1.46100E-03   5.11424E-04   7.46280E-05   1.05926E-04   1.68575E-12     1801.09  0
 1.48100E-03   5.04099E-04   7.20469E-05   1.06187E-04   1.59118E-12     1762.59  0
 1.50100E-03   5.00337E-04   6.84789E-05   1.06307E-04   1.49738E-12     1731.88  0
 1.52100E-03   4.93494E-04   6.51884E-05   1.06352E-04   1.40529E-12     1706.80  0
 1.54100E-03   4.88318E-04   6.28180E-05   1.06371E-04   1.31422E-12     1686.10  0
 1.56100E-03   4.82896E-04   5.92417E-05   1.06473E-04   1.22553E-12     1669.32  0
 1.58100E-03   4.76678E-04   5.69975E-05   1.06594E-04   1.13841E-12     1655.72  0
 1.60100E-03   4.72093E-04   5.33275E-05   1.06131E-04   1.02873E-12     1644.70  0
 1.62100E-03   4.65097E-04   5.06910E-05   1.11689E-04   9.46544E-13     1635.72  0
 1.64100E-03   4.61214E-04   4.83114E-05   1.12119E-04   8.67953E-13     1629.36  0
 1.66100E-03   4.53593E-04   4.55483E-05   1.12428E-04   7.92701E-13     1625.05  0
 1.68100E-03   4.47058E-04   4.36072E-05   1.12650E-04   7.21506E-13     1623.01  0
 1.70100E-03   4.34666E-04   4.16267E-05   1.12812E-04   6.53906E-13     1622.57  0
 1.72100E-03   4.24001E-04   3.92794E-05   1.12926E-04   5.89417E-13     1621.98  0
 1.74100E-03   4.13171E-04   3.78885E-05   1.13001E-04   6.07160E-13     1621.25  1
 1.76100E-03   4.28908E-05   1.03386E-04   4.41584E-05   7.10453E-13     1844.50  1
 1.78100E-03   7.03461E-05   1.09040E-04   6.04929E-05   7.84663E-13     2717.67  1
 1.80100E-03   9.32085E-05   1.10582E-04   6.57503E-05   8.46331E-13     3026.84  1
 1.82100E-03   1.15417E-04   1.11344E-04   6.98434E-05   9.19095E-13     3164.48  1
 1.84100E-03   1.37445E-04   1.11845E-04   7.31272E-05   9.98051E-13     3254.23  1
 1.86100E-03   1.60867E-04   1.12167E-04   7.49720E-05   1.08981E-12     3302.71  1
 1.88100E-03   1.82184E-04   1.12397E-04   8.00300E-05   1.19145E-12     3297.73  1
 1.90100E-03   2.02655E-04   1.12581E-04   8.18321E-05   1.29266E-12     3318.45  1
 1.92100E-03   2.23682E-04   1.12725E-04   8.29518E-05   1.39677E-12     3278.97  1
 1.94100E-03   2.44650E-04   1.12847E-04   8.39224E-05   1.49977E-12     3306.13  1
 1.96100E-03   2.65545E-04   1.12954E-04   8.47380E-05   1.60237E-12     3334.24  1
 1.98100E-03   2.86738E-04   1.13044E-04   8.54836E-05   1.71001E-12     3362.05  1
 2.00100E-03   3.07012E-04   1.13109E-04   8.62011E-05   1.81965E-12     3365.29  1
 2.02100E-03   3.28029E-04   1.13182E-04   8.69790E-05   1.92951E-12     3349.71  1
 2.04100E-03   3.51218E-04   1.13265E-04   8.77374E-05   2.04489E-12     3336.14  1
 2.06100E-03   3.71668E-04   1.13354E-04   9.10470E-05   2.16823E-12     3308.94  1
 2.08100E-03   3.92225E-04   1.13404E-04   9.27123E-05   2.29752E-12     3290.50  1
 2.10100E-03   4.12744E-04   1.13429E-04   9.37643E-05   2.42359E-12     3319.58  1
 2.12100E-03   4.33562E-04   1.13477E-04   9.53277E-05   2.54350E-12     3355.08  1
 2.14100E-03   4.54629E-04   1.13558E-04   9.63443E-05   2.66299E-12     3373.47  1
 2.16100E-03   4.77443E-04   1.13582E-04   9.72234E-05   2.77219E-12     3373.29  1
 2.18100E-03   4.98258E-04   1.13582E-04   9.81050E-05   2.87933E-12     3336.16  1
 2.20100E-03   5.17124E-04   1.13505E-04   9.89036E-05   2.98303E-12     3339.86  1
 2.22100E-03   5.43987E-04   1.13414E-04   1.03082E-04   3.08198E-12     3305.28  1
 2.24100E-03   5.64861E-04   1.13418E-04   1.05404E-04   3.18236E-12     3300.54  1
 2.26100E-03   5.85599E-04   1.13441E-04   1.06447E-04   3.27593E-12     3298.35  1
 2.28100E-03   6.04133E-04   1.13318E-04   1.07116E-04   3.36717E-12     3287.83  1
 2.30100E-03   6.22820E-04   1.13145E-04   1.07626E-04   3.45315E-12     3310.14  1
 2.32100E-03   6.41998E-04   1.12949E-04   1.08040E-04   3.53222E-12     3335.82  1
 2.34100E-03   6.61285E-04   1.12829E-04   1.08469E-04   3.60408E-12     3352.87  1
 2.36100E-03   6.80337E-04   1.12716E-04   1.08781E-04   3.67335E-12     3355.16  1
 2.38100E-03   6.97940E-04   1.12595E-04   1.08991E-04   3.73914E-12     3331.31  1
 2.40100E-03   7.16080E-04   1.12441E-04   1.09116E-04   3.80025E-12     3297.68  1
 2.42100E-03   7.35822E-04   1.12233E-04   1.09207E-04   3.85769E-12     3279.68  1
 2.44100E-03   7.49250E-04   1.12173E-04   1.09227E-04   3.90372E-12     3243.84  1
 2.46100E-03   7.65512E-04   1.12092E-04   1.09172E-04   3.79622E-12     3266.05  0
 2.48100E-03   7.60643E-04   1.09748E-04   1.09092E-04   3.67791E-12     2817.25  0
 2.50100E-03   7.58364E-04   1.07925E-04   1.08938E-04   3.55148E-12     2544.24  0
 2.52100E-03   7.51525E-04   1.04014E-04   1.08771E-04   3.42207E-12     2370.50  0
 2.54100E-03   7.48799E-04   1.00602E-04   1.08503E-04   3.29893E-12     2251.63  0
 2.56100E-03   7.41763E-04   9.77449E-05   1.08137E-04   3.17379E-12     2158.20  0
 2.58100E-03   7.38451E-04   9.34913E-05   1.07699E-04   3.05154E-12     2082.71  0
 2.60100E-03   7.30944E-04   8.95028E-05   1.07146E-04   2.92452E-12     2016.80  0
 2.62100E-03   7.26871E-04   8.64727E-05   1.06810E-04   2.80516E-12     1959.52  0
 2.64100E-03   7.22427E-04   8.30283E-05   1.06226E-04   2.68661E-12     1911.24  0
 2.66100E-03   7.17056E-04   7.91953E-05   1.05577E-04   2.57023E-12     1868.66  0
 2.68100E-03   7.11650E-04   7.61902E-05   1.04862E-04   2.45497E-12     1831.72  0
 2.70100E-03   7.08103E-04   7.31935E-05   1.04088E-04   2.34094E-12     1799.62  0
 2.72100E-03   7.01195E-04   6.97352E-05   1.03421E-04   2.22759E-12     1771.42  0
 2.74100E-03   6.99818E-04   6.76475E-05   1.02861E-04   2.11550E-12     1747.10  0
 2.76100E-03   6.98952E-04   6.41251E-05   1.02251E-04   2.00454E-12     1725.27  0
 2.78100E-03   6.93878E-04   6.22002E-05   1.01607E-04   1.89487E-12     1706.30  0
 2.80100E-03   6.82324E-04   5.89755E-05   9.95860E-05   1.75274E-12     1689.59  0
 2.82100E-03   6.83312E-04   5.71965E-05   1.03315E-04   1.64462E-12     1674.48  0
 2.84100E-03   6.74557E-04   5.43129E-05   1.03494E-04   1.53829E-12     1661.09  0
 2.86100E-03   6.65705E-04   5.27225E-05   1.03591E-04   1.43477E-12     1649.60  0
 2.88100E-03   6.55799E-04   4.98457E-05   1.03637E-04   1.33368E-12     1640.37  0
 2.90100E-03   6.44265E-04   4.82168E-05   1.03648E-04   1.23607E-12     1633.14  0
 2.92100E-03   6.32097E-04   4.57623E-05   1.03635E-04   1.14137E-12     1627.85  0
 2.94100E-03   6.22300E-04   4.38454E-05   1.03600E-04   1.05088E-12     1624.42  0
 2.96100E-03   6.19702E-04   4.22793E-05   1.03543E-04   1.03865E-12     1622.94  1
 2.98100E-03   4.47658E-05   1.03705E-04   4.08164E-05   1.11553E-12     1857.43  1
 3.00100E-03   6.93565E-05   1.08522E-04   5.97431E-05   1.10419E-12     2591.42  1
 3.02100E-03   9.50554E-05   1.10574E-04   6.95913E-05   1.14023E-12     2975.44  1
 3.04100E-03   1.18849E-04   1.11389E-04   7.24197E-05   1.18699E-12     3145.39  1
 3.06100E-03   1.45072E-04   1.11856E-04   7.39478E-05   1.23472E-12     3237.70  1
 3.08100E-03   1.65522E-04   1.12136E-04   7.52907E-05   1.29574E-12     3301.70  1
 3.10100E-03   1.86732E-04   1.12364E-04   8.01560E-05   1.36352E-12     3340.49  1
 3.12100E-03   2.07283E-04   1.12558E-04   8.20164E-05   1.43888E-12     3327.68  1
 3.14100E-03   2.28557E-04   1.12706E-04   8.32432E-05   1.51867E-12     3288.60  1
 3.16100E-03   2.49784E-04   1.12837E-04   8.41610E-05   1.60257E-12     3297.64  1
 3.18100E-03   2.71060E-04   1.12953E-04   8.49125E-05   1.68371E-12     3319.06  1
 3.20100E-03   2.92553E-04   1.13047E-04   8.55963E-05   1.77316E-12     3349.62  1
 3.22100E-03   3.15378E-04   1.13117E-04   8.63133E-05   1.86190E-12     3351.97  1
 3.24100E-03   3.36613E-04   1.13204E-04   8.69494E-05   1.95483E-12     3331.09  1
 3.26100E-03   3.57092E-04   1.13312E-04   8.76266E-05   2.05271E-12     3340.06  1
 3.28100E-03   3.78214E-04   1.13389E-04   8.83044E-05   2.15988E-12     3305.14  1
 3.30100E-03   3.99406E-04   1.13439E-04   9.18075E-05   2.27106E-12     3319.44  1
 3.32100E-03   4.20669E-04   1.13526E-04   9.34962E-05   2.38883E-12     3337.50  1
 3.34100E-03   4.45597E-04   1.13635E-04   9.43557E-05   2.50839E-12     3368.06  1
 3.36100E-03   4.65352E-04   1.13689E-04   9.50752E-05   2.62614E-12     3374.66  1
 3.38100E-03   4.86047E-04   1.13738E-04   9.57041E-05   2.74074E-12     3392.21  1
 3.40100E-03   5.04331E-04   1.13716E-04   9.62287E-05   2.84789E-12     3370.12  1
 3.42100E-03   5.28068E-04   1.13714E-04   9.67925E-05   2.94956E-12     3340.78  1
 3.44100E-03   5.48104E-04   1.13813E-04   9.73500E-05   3.05097E-12     3334.34  1
 3.46100E-03   5.68483E-04   1.13951E-04   9.79270E-05   3.14920E-12     3336.86  1
 3.48100E-03   5.87591E-04   1.13947E-04   9.84809E-05   3.24455E-12     3321.08  1
 3.50099E-03   6.04589E-04   1.13925E-04   9.90375E-05   3.33549E-12     3339.63  1
 3.52099E-03   6.22454E-04   1.13943E-04   9.95809E-05   3.43489E-12     3360.61  1
 3.54099E-03   6.45242E-04   1.13997E-04   1.01542E-04   3.53253E-12     3392.36  1
 3.56099E-03   6.63806E-04   1.13983E-04   1.03488E-04   3.62595E-12     3392.47  1
 3.58099E-03   6.77871E-04   1.13966E-04   1.04472E-04   3.71593E-12     3401.67  1
 3.60099E-03   6.94285E-04   1.13856E-04   1.05119E-04   3.80361E-12     3375.79  1
 3.62099E-03   7.09767E-04   1.13782E-04   1.05673E-04   3.88620E-12     3344.23  1
 3.64099E-03   7.26351E-04   1.13804E-04   1.06189E-04   3.96395E-12     3332.24  1
 3.66099E-03   7.42234E-04   1.13848E-04   1.06649E-04   4.03712E-12     3331.68  1
 3.68099E-03   7.59031E-04   1.13760E-04   1.07082E-04   4.11358E-12     3320.88  1
 3.70099E-03   7.77078E-04   1.13629E-04   1.08796E-04   4.18718E-12     3340.27  1
 3.72099E-03   7.91883E-04   1.13487E-04   1.10204E-04   4.25282E-12     3359.02  1
 3.74099E-03   8.14125E-04   1.13365E-04   1.11004E-04   4.31440E-12     3385.12  1
 3.76099E-03   8.26942E-04   1.13236E-04   1.11609E-04   4.37059E-12     3381.33  1
 3.78099E-03   8.44914E-04   1.13089E-04   1.12061E-04   4.42672E-12     3385.78  1
 3.80099E-03   8.56976E-04   1.12913E-04   1.12363E-04   4.48373E-12     3346.54  1
 3.82099E-03   8.78484E-04   1.12702E-04   1.12614E-04   4.52526E-12     3311.25  1
 3.84099E-03   8.94490E-04   1.12701E-04   1.12790E-04   4.56252E-12     3348.68  1
 3.86099E-03   9.07492E-04   1.12598E-04   1.12926E-04   4.59446E-12     3355.86  1
 3.88099E-03   9.25785E-04   1.12448E-04   1.13019E-04   4.62581E-12     3335.35  1
 3.90099E-03   9.39411E-04   1.12259E-04   1.12998E-04   4.64910E-12     3305.06  1
 3.92099E-03   9.56506E-04   1.12159E-04   1.12905E-04   4.51466E-12     3263.81  0
 3.94099E-03   9.56444E-04   1.09876E-04   1.12763E-04   4.36848E-12     2832.91  0
 3.96099E-03   9.56127E-04   1.08023E-04   1.12598E-04   4.21480E-12     2563.21  0
 3.98099E-03   9.51107E-04   1.04204E-04   1.12443E-04   4.05774E-12     2384.13  0
 4.00099E-03   9.45368E-04   1.01084E-04   1.11437E-04   3.88147E-12     2260.82  0
 4.02099E-03   9.35907E-04   9.79445E-05   1.13004E-04   3.72745E-12     2152.01  0
 4.04099E-03   9.32082E-04   9.38958E-05   1.13818E-04   3.56454E-12     2058.78  0
 4.06099E-03   9.22868E-04   9.03862E-05   1.14283E-04   3.40057E-12     1982.88  0
 4.08099E-03   9.18880E-04   8.75421E-05   1.14626E-04   3.23758E-12     1921.19  0
 4.10099E-03   9.09026E-04   8.34941E-05   1.14803E-04   3.07720E-12     1871.65  0
 4.12099E-03   9.02313E-04   7.98710E-05   1.14770E-04   2.91953E-12     1830.77  0
 4.14099E-03   8.94361E-04   7.72215E-05   1.14698E-04   2.76514E-12     1796.73  0
 4.16100E-03   8.84872E-04   7.34983E-05   1.14610E-04   2.61423E-12     1767.28  0
 4.18100E-03   8.79689E-04   7.01630E-05   1.14518E-04   2.46603E-12     1742.22  0
 4.20100E-03   8.68743E-04   6.73696E-05   1.13543E-04   2.24148E-12     1720.45  0
 4.22100E-03   8.60924E-04   6.39937E-05   1.17644E-04   2.06995E-12     1700.39  0
 4.24100E-03   8.54644E-04   6.15008E-05   1.20546E-04   1.91035E-12     1682.63  0
 4.26100E-03   8.44496E-04   5.86506E-05   1.21655E-04   1.76048E-12     1667.02  0
 4.28100E-03   8.34800E-04   5.60716E-05   1.21888E-04   1.61780E-12     1654.04  0
 4.30100E-03   8.25451E-04   5.36146E-05   1.22061E-04   1.48216E-12     1643.43  0
 4.32100E-03   8.15951E-04   5.12137E-05   1.22180E-04   1.35261E-12     1635.02  0
 4.34100E-03   8.05171E-04   4.88104E-05   1.22254E-04   1.23002E-12     1628.83  0
 4.36100E-03   7.92212E-04   4.68480E-05   1.22292E-04   1.11431E-12     1624.74  0
 4.38100E-03   7.77441E-04   4.41999E-05   1.22297E-04   1.00431E-12     1622.96  0
 4.40100E-03   7.60595E-04   4.21471E-05   1.21061E-04   8.78773E-13     1622.47  0
 4.42100E-03   7.41357E-04   3.95612E-05   1.20520E-04   8.54291E-13     1621.82  1
 4.44100E-03   4.43694E-05   1.03311E-04   4.30046E-05   9.19197E-13     1845.79  1
 4.46100E-03   7.27698E-05   1.09243E-04   6.05596E-05   9.64199E-13     2747.69  1
 4.48100E-03   9.71328E-05   1.10913E-04   6.61666E-05   1.01488E-12     3082.24  1
 4.50100E-03   1.18925E-04   1.11794E-04   7.16215E-05   1.07137E-12     3170.76  1
 4.52100E-03   1.40574E-04   1.12139E-04   7.36921E-05   1.13220E-12     3221.93  1
 4.54100E-03   1.61907E-04   1.12355E-04   7.50039E-05   1.19739E-12     3271.19  1
 4.56100E-03   1.83144E-04   1.12522E-04   7.60352E-05   1.26477E-12     3296.22  1
 4.58100E-03   2.04760E-04   1.12650E-04   7.69342E-05   1.33560E-12     3327.46  1
 4.60100E-03   2.25465E-04   1.12477E-04   7.80156E-05   1.45864E-12     3291.20  1
 4.62100E-03   2.48275E-04   1.12687E-04   8.19371E-05   1.54704E-12     3264.87  1
 4.64100E-03   2.68841E-04   1.12870E-04   8.37751E-05   1.63898E-12     3240.76  1
 4.66100E-03   2.89438E-04   1.13008E-04   8.49806E-05   1.73393E-12     3258.61  1
 4.68100E-03   3.10307E-04   1.13128E-04   8.59482E-05   1.83260E-12     3249.72  1
 4.70100E-03   3.31215E-04   1.13224E-04   8.68164E-05   1.93262E-12     3280.35  1
 4.72100E-03   3.52225E-04   1.13341E-04   8.76725E-05   2.03503E-12     3309.53  1
