# Melt Pool Geometry History
# time(s)  length(m)  depth(m)  width(m)  volume(m3)  Tpeak(K)  laser_on
 2.10000E-05   0.00000E+00   0.00000E+00   0.00000E+00   8.04322E-14      293.00  1
 4.10000E-05   4.50290E-05   1.03821E-04   4.36985E-05   2.36540E-13     1935.83  1
 6.10000E-05   7.08196E-05   1.09966E-04   5.80312E-05   3.70675E-13     2876.23  1
 8.10000E-05   9.22525E-05   1.12137E-04   6.44723E-05   4.96831E-13     3254.22  1
 1.01000E-04   1.13337E-04   1.12757E-04   6.71686E-05   6.19083E-13     3495.12  1
 1.21000E-04   1.35274E-04   1.13118E-04   6.84067E-05   7.36016E-13     3567.84  1
 1.41000E-04   1.56045E-04   1.13202E-04   6.92099E-05   8.42135E-13     3616.35  1
 1.61000E-04   1.76615E-04   1.13314E-04   6.97604E-05   9.42396E-13     3646.23  1
 1.81000E-04   1.93232E-04   1.13427E-04   7.01926E-05   1.05133E-12     3650.11  1
 2.01000E-04   2.12427E-04   1.12084E-04   7.08203E-05   1.20752E-12     3531.85  1
 2.21000E-04   2.33186E-04   1.12310E-04   8.06698E-05   1.33219E-12     3430.93  1
 2.41000E-04   2.52371E-04   1.12584E-04   8.33399E-05   1.44825E-12     3372.82  1
 2.61000E-04   2.71794E-04   1.12717E-04   8.47698E-05   1.41460E-12     3354.72  0
 2.81000E-04   2.73418E-04   1.11044E-04   8.58863E-05   1.37011E-12     2876.30  0
 3.01000E-04   2.73585E-04   1.08460E-04   8.68287E-05   1.31810E-12     2612.67  0
 3.21000E-04   2.73442E-04   1.05162E-04   8.76355E-05   1.26528E-12     2442.25  0
 3.41000E-04   2.73133E-04   1.02713E-04   8.83243E-05   1.21334E-12     2319.16  0
 3.61000E-04   2.72722E-04   9.85630E-05   8.89007E-05   1.15989E-12     2221.46  0
 3.81000E-04   2.72272E-04   9.47507E-05   8.93607E-05   1.11079E-12     2141.71  0
 4.01000E-04   2.70142E-04   9.15533E-05   8.83602E-05   1.07472E-12     2072.88  0
 4.21000E-04   2.72667E-04   8.80749E-05   8.89718E-05   1.03570E-12     2003.37  0
 4.41000E-04   2.73074E-04   8.40221E-05   9.01325E-05   9.91154E-13     1939.99  0
 4.61000E-04   2.73222E-04   8.06059E-05   9.03529E-05   9.44987E-13     1885.88  0
 4.81000E-04   2.73284E-04   7.77716E-05   9.02478E-05   8.98655E-13     1839.71  0
 5.01000E-04   2.73274E-04   7.37753E-05   8.99544E-05   8.52197E-13     1800.71  0
 5.21000E-04   2.73226E-04   7.03236E-05   8.95132E-05   8.05454E-13     1767.47  0
 5.41000E-04   2.73128E-04   6.77643E-05   8.89630E-05   7.58567E-13     1739.26  0
 5.61000E-04   2.72986E-04   6.39370E-05   8.83345E-05   7.11486E-13     1715.47  0
 5.81000E-04   2.72806E-04   6.08763E-05   8.76480E-05   6.63982E-13     1695.02  0
 6.01000E-04   2.72594E-04   5.80730E-05   8.69483E-05   6.16605E-13     1677.58  0
 6.21000E-04   2.72352E-04   5.44706E-05   8.62741E-05   5.69188E-13     1662.80  0
 6.41000E-04   2.72057E-04   5.23241E-05   8.56924E-05   5.22415E-13     1650.41  0
 6.61000E-04   2.71708E-04   4.88273E-05   8.53426E-05   4.76718E-13     1640.35  0
 6.81000E-04   2.71260E-04   4.62706E-05   8.51982E-05   4.32169E-13     1632.62  0
 7.01000E-04   2.70302E-04   4.35556E-05   8.51079E-05   3.89503E-13     1627.01  0
 7.21000E-04   2.61448E-04   4.08903E-05   8.50215E-05   3.48926E-13     1623.62  0
 7.41000E-04   2.60604E-04   3.85332E-05   8.49346E-05   3.10067E-13     1622.70  0
 7.61000E-04   2.52361E-04   3.60656E-05   8.48430E-05   3.53359E-13     1622.08  1
 7.81000E-04   4.62065E-05   1.02622E-04   4.66107E-05   4.82729E-13     1811.96  1
 8.01000E-04   7.43439E-05   1.09127E-04   6.03361E-05   5.72245E-13     2718.48  1
 8.21000E-04   9.64786E-05   1.11243E-04   6.65060E-05   6.65793E-13     3134.63  1
 8.41000E-04   1.17701E-04   1.12430E-04   6.85928E-05   7.63548E-13     3357.50  1
 8.61000E-04   1.38433E-04   1.12834E-04   7.39255E-05   8.81839E-13     3468.62  1
 8.81000E-04   1.58597E-04   1.13145E-04   8.04654E-05   1.00137E-12     3502.82  1
 9.01000E-04   1.78002E-04   1.13363E-04   8.26683E-05   1.12328E-12     3508.28  1
 9.21000E-04   1.97303E-04   1.13647E-04   8.40396E-05   1.24346E-12     3518.41  1
 9.41000E-04   2.17090E-04   1.13952E-04   8.52795E-05   1.36070E-12     3527.95  1
 9.61000E-04   2.36950E-04   1.14261E-04   8.64443E-05   1.47864E-12     3527.75  1
 9.81000E-04   2.56783E-04   1.14506E-04   8.75714E-05   1.59427E-12     3528.92  1
 1.00100E-03   2.75025E-04   1.14542E-04   8.85866E-05   1.73217E-12     3511.00  1
 1.02100E-03   2.95445E-04   1.14520E-04   9.48168E-05   1.86427E-12     3518.63  1
 1.04100E-03   3.15922E-04   1.14609E-04   9.68442E-05   1.99605E-12     3495.87  1
 1.06100E-03   3.35798E-04   1.14668E-04   9.81277E-05   2.12075E-12     3489.53  1
 1.08100E-03   3.55406E-04   1.14541E-04   9.92893E-05   2.25002E-12     3478.39  1
 1.10100E-03   3.75025E-04   1.14318E-04   1.08628E-04   2.38196E-12     3470.27  1
 1.12100E-03   3.94435E-04   1.14023E-04   1.11627E-04   2.50935E-12     3471.28  1
 1.14100E-03   4.13978E-04   1.13745E-04   1.13169E-04   2.62990E-12     3448.65  1
 1.16100E-03   4.31038E-04   1.13545E-04   1.14200E-04   2.74598E-12     3435.41  1
 1.18100E-03   4.50230E-04   1.13349E-04   1.18719E-04   2.85813E-12     3446.88  1
 1.20100E-03   4.67081E-04   1.13164E-04   1.21693E-04   2.96290E-12     3409.35  1
 1.22100E-03   4.93211E-04   1.12930E-04   1.23103E-04   3.06329E-12     3385.57  1
 1.24100E-03   5.12692E-04   1.12925E-04   1.23957E-04   3.00210E-12     3372.05  0
 1.26100E-03   5.14966E-04   1.11811E-04   1.24427E-04   2.92818E-12     2880.94  0
 1.28100E-03   5.15645E-04   1.08853E-04   1.24731E-04   2.84493E-12     2611.95  0
 1.30100E-03   5.15916E-04   1.06582E-04   1.24885E-04   2.75741E-12     2442.69  0
 1.32100E-03   5.15969E-04   1.03424E-04   1.24804E-04   2.66784E-12     2321.45  0
 1.34100E-03   5.15889E-04   9.99366E-05   1.24565E-04   2.57411E-12     2224.12  0
 1.36100E-03   5.15662E-04   9.76074E-05   1.24172E-04   2.48301E-12     2141.18  0
 1.38100E-03   5.11557E-04   9.35956E-05   1.23673E-04   2.38975E-12     2068.54  0
 1.40100E-03   5.05861E-04   9.00971E-05   1.22837E-04   2.27858E-12     1999.52  0
 1.42100E-03   5.02364E-04   8.77088E-05   1.25448E-04   2.18540E-12     1938.39  0
 1.44100E-03   4.96864E-04   8.38990E-05   1.26216E-04   2.08829E-12     1884.61  0
 1.46100E-03   4.93015E-04   8.10404E-05   1.26086E-04   1.99033E-12     1838.59  0
 1.48100E-03   4.87547E-04   7.82111E-05   1.25708E-04   1.89207E-12     1800.98  0
 1.50100E-03   4.83122E-04   7.49689E-05   1.25242E-04   1.79490E-12     1769.25  0
 1.52100E-03   4.77499E-04   7.27782E-05   1.23928E-04   1.69854E-12     1742.86  0
 1.54100E-03   4.73098E-04   6.94534E-05   1.21679E-04   1.60343E-12     1720.29  0
 1.56100E-03   4.67647E-04   6.75950E-05   1.19517E-04   1.50902E-12     1701.20  0
 1.58100E-03   4.63252E-04   6.43034E-05   1.18561E-04   1.41617E-12     1684.94  0
 1.60100E-03   4.58302E-04   6.17849E-05   1.16111E-04   1.26223E-12     1670.70  0
 1.62100E-03   4.53509E-04   5.90901E-05   1.23391E-04   1.16006E-12     1658.66  0
 1.64100E-03   4.50540E-04   5.74797E-05   1.23255E-04   1.06434E-12     1648.31  0
 1.66100E-03   4.43706E-04   5.44484E-05   1.22942E-04   9.73545E-13     1639.84  0
 1.68100E-03   4.40825E-04   5.28802E-05   1.22442E-04   8.87659E-13     1632.97  0
 1.70100E-03   4.33503E-04   5.01111E-05   1.22358E-04   8.06523E-13     1627.83  0
 1.72100E-03   4.27644E-04   4.84289E-05   1.22391E-04   7.30218E-13     1624.45  0
 1.74100E-03   4.14945E-04   4.62126E-05   1.22388E-04   7.32680E-13     1622.97  1
 1.76100E-03   4.45622E-05   1.03473E-04   4.41602E-05   8.29435E-13     1844.49  1
 1.78100E-03   6.94515E-05   1.09391E-04   6.10460E-05   8.94038E-13     2754.17  1
 1.80100E-03   9.11423E-05   1.11099E-04   6.67379E-05   9.56080E-13     3111.70  1
 1.82100E-03   1.11998E-04   1.12340E-04   7.13895E-05   1.03052E-12     3272.16  1
 1.84100E-03   1.32464E-04   1.12821E-04   7.88916E-05   1.11932E-12     3357.74  1
 1.86100E-03   1.52617E-04   1.13072E-04   8.15330E-05   1.20791E-12     3399.10  1
 1.88100E-03   1.72624E-04   1.13324E-04   8.29889E-05   1.30471E-12     3426.70  1
 1.90100E-03   1.92529E-04   1.13599E-04   8.43233E-05   1.40293E-12     3444.77  1
 1.92100E-03   2.12267E-04   1.13956E-04   8.55388E-05   1.50253E-12     3450.24  1
 1.94100E-03   2.31980E-04   1.14359E-04   8.66082E-05   1.60113E-12     3453.36  1
 1.96100E-03   2.51737E-04   1.14686E-04   8.76972E-05   1.70713E-12     3457.55  1
 1.98100E-03   2.71511E-04   1.14963E-04   9.36750E-05   1.82613E-12     3464.40  1
 2.00100E-03   2.89809E-04   1.15121E-04   9.66702E-05   1.95145E-12     3449.59  1
 2.02100E-03   3.09730E-04   1.15245E-04   9.85346E-05   2.07693E-12     3448.37  1
 2.04100E-03   3.29660E-04   1.15428E-04   1.07924E-04   2.20539E-12     3477.69  1
 2.06100E-03   3.49450E-04   1.15625E-04   1.15827E-04   2.34853E-12     3496.75  1
 2.08100E-03   3.69186E-04   1.15734E-04   1.21755E-04   2.49308E-12     3495.87  1
 2.10100E-03   3.88513E-04   1.15798E-04   1.30832E-04   2.64072E-12     3489.74  1
 2.12100E-03   4.07980E-04   1.15843E-04   1.34297E-04   2.79117E-12     3476.61  1
 2.14100E-03   4.27283E-04   1.15868E-04   1.41929E-04   2.94023E-12     3467.34  1
 2.16100E-03   4.46522E-04   1.15872E-04   1.43724E-04   3.08556E-12     3465.45  1
 2.18100E-03   4.65703E-04   1.15850E-04   1.44700E-04   3.22648E-12     3474.43  1
 2.20100E-03   4.83249E-04   1.15771E-04   1.46268E-04   3.36043E-12     3465.67  1
 2.22100E-03   5.05941E-04   1.15609E-04   1.49214E-04   3.48604E-12     3465.44  1
 2.24100E-03   5.25686E-04   1.15573E-04   1.50437E-04   3.60451E-12     3474.10  1
 2.26100E-03   5.45397E-04   1.15554E-04   1.51451E-04   3.71455E-12     3479.89  1
 2.28100E-03   5.64704E-04   1.15381E-04   1.52123E-04   3.81741E-12     3464.16  1
 2.30100E-03   5.84039E-04   1.15138E-04   1.52560E-04   3.91235E-12     3437.75  1
 2.32100E-03   6.03294E-04   1.14857E-04   1.52914E-04   4.00237E-12     3418.25  1
 2.34100E-03   6.23002E-04   1.14573E-04   1.53170E-04   4.08515E-12     3427.06  1
 2.36100E-03   6.42485E-04   1.14205E-04   1.53281E-04   4.15733E-12     3409.39  1
 2.38100E-03   6.61306E-04   1.13854E-04   1.53258E-04   4.22046E-12     3402.08  1
 2.40100E-03   6.74644E-04   1.13615E-04   1.53087E-04   4.27565E-12     3392.71  1
 2.42100E-03   6.90884E-04   1.13338E-04   1.52880E-04   4.32405E-12     3392.10  1
 2.44100E-03   7.05357E-04   1.13179E-04   1.52656E-04   4.36735E-12     3372.32  1
 2.46100E-03   7.18903E-04   1.13130E-04   1.52401E-04   4.24985E-12     3363.78  0
 2.48100E-03   7.16204E-04   1.12357E-04   1.52076E-04   4.12200E-12     2865.37  0
 2.50100E-03   7.10446E-04   1.09174E-04   1.51728E-04   3.98153E-12     2593.17  0
 2.52100E-03   7.06809E-04   1.07592E-04   1.51363E-04   3.83879E-12     2426.31  0
 2.54100E-03   7.00927E-04   1.03801E-04   1.50848E-04   3.69114E-12     2303.85  0
 2.56100E-03   6.97143E-04   1.00886E-04   1.50311E-04   3.54416E-12     2205.24  0
 2.58100E-03   6.91618E-04   9.80372E-05   1.49762E-04   3.39938E-12     2120.57  0
 2.60100E-03   6.87330E-04   9.40023E-05   1.48757E-04   3.20247E-12     2045.39  0
 2.62100E-03   6.81712E-04   9.10956E-05   1.51605E-04   3.05894E-12     1975.23  0
 2.64100E-03   6.77448E-04   8.80718E-05   1.49124E-04   2.90976E-12     1911.12  0
 2.66100E-03   6.72215E-04   8.44438E-05   1.47214E-04   2.76063E-12     1857.45  0
 2.68100E-03   6.66645E-04   8.18853E-05   1.46274E-04   2.61207E-12     1812.87  0
 2.70100E-03   6.63674E-04   7.84944E-05   1.45471E-04   2.46597E-12     1777.19  0
 2.72100E-03   6.56100E-04   7.53155E-05   1.44512E-04   2.32176E-12     1747.01  0
 2.74100E-03   6.53388E-04   7.29226E-05   1.43533E-04   2.18109E-12     1722.34  0
 2.76100E-03   6.46154E-04   6.94608E-05   1.42136E-04   2.04252E-12     1701.55  0
 2.78100E-03   6.43169E-04   6.75578E-05   1.38871E-04   1.90846E-12     1684.19  0
 2.80100E-03   6.32479E-04   6.40414E-05   1.34882E-04   1.71315E-12     1669.19  0
 2.82100E-03   6.36149E-04   6.21915E-05   1.38518E-04   1.57539E-12     1657.01  0
 2.84100E-03   6.28280E-04   5.91064E-05   1.39029E-04   1.44642E-12     1646.70  0
 2.86100E-03   6.21004E-04   5.74722E-05   1.38747E-04   1.32547E-12     1638.19  0
 2.88100E-03   6.10520E-04   5.43555E-05   1.35448E-04   1.21052E-12     1631.62  0
 2.90100E-03   6.03465E-04   5.28526E-05   1.34125E-04   1.10272E-12     1626.84  0
 2.92100E-03   5.90063E-04   5.01422E-05   1.32950E-04   1.00072E-12     1623.88  0
 2.94100E-03   5.78399E-04   4.84317E-05   1.31548E-04   9.04905E-13     1622.86  0
 2.96100E-03   5.66251E-04   4.63270E-05   1.29999E-04   8.93788E-13     1622.45  1
 2.98100E-03   4.24649E-05   1.03754E-04   4.31821E-05   9.65739E-13     1862.85  1
 3.00100E-03   6.94606E-05   1.08795E-04   6.18808E-05   1.01029E-12     2662.12  1
 3.02100E-03   9.66601E-05   1.11080E-04   7.45637E-05   1.07049E-12     3057.97  1
 3.04100E-03   1.15642E-04   1.12261E-04   7.80993E-05   1.13248E-12     3301.86  1
 3.06100E-03   1.35132E-04   1.12813E-04   8.01985E-05   1.20012E-12     3446.72  1
 3.08100E-03   1.55412E-04   1.13118E-04   8.19704E-05   1.27529E-12     3493.34  1
 3.10100E-03   1.73314E-04   1.13346E-04   8.32309E-05   1.35839E-12     3502.12  1
 3.12100E-03   1.93064E-04   1.13659E-04   8.43714E-05   1.44342E-12     3514.21  1
 3.14100E-03   2.12899E-04   1.14053E-04   8.56484E-05   1.53176E-12     3515.03  1
 3.16100E-03   2.32736E-04   1.14462E-04   8.68943E-05   1.62265E-12     3520.32  1
 3.18100E-03   2.52553E-04   1.14831E-04   8.80270E-05   1.72514E-12     3525.50  1
 3.20100E-03   2.72280E-04   1.14959E-04   9.50673E-05   1.83861E-12     3515.63  1
 3.22100E-03   2.94978E-04   1.15116E-04   9.72508E-05   1.95905E-12     3513.25  1
 3.24100E-03   3.15376E-04   1.15392E-04   9.89957E-05   2.08309E-12     3505.05  1
 3.26100E-03   3.35483E-04   1.15660E-04   1.08767E-04   2.21860E-12     3504.95  1
 3.28100E-03   3.55448E-04   1.15815E-04   1.18240E-04   2.36086E-12     3503.87  1
 3.30100E-03   3.74947E-04   1.15928E-04   1.24301E-04   2.50851E-12     3506.87  1
 3.32100E-03   3.94513E-04   1.16026E-04   1.30792E-04   2.65674E-12     3503.83  1
 3.34100E-03   4.14143E-04   1.16111E-04   1.34083E-04   2.80891E-12     3507.02  1
 3.36100E-03   4.33710E-04   1.16186E-04   1.40660E-04   2.96167E-12     3523.42  1
 3.38100E-03   4.53089E-04   1.16250E-04   1.42828E-04   3.11063E-12     3525.39  1
 3.40100E-03   4.69089E-04   1.16281E-04   1.44238E-04   3.25352E-12     3497.80  1
 3.42100E-03   4.95085E-04   1.16250E-04   1.45980E-04   3.38990E-12     3509.96  1
 3.44100E-03   5.14717E-04   1.16364E-04   1.49035E-04   3.52343E-12     3521.38  1
 3.46100E-03   5.34385E-04   1.16499E-04   1.50504E-04   3.65284E-12     3529.38  1
 3.48100E-03   5.53960E-04   1.16523E-04   1.51591E-04   3.77836E-12     3525.57  1
 3.50099E-03   5.70513E-04   1.16515E-04   1.52343E-04   3.89996E-12     3524.77  1
 3.52099E-03   5.87571E-04   1.16503E-04   1.52947E-04   4.01360E-12     3529.66  1
 3.54099E-03   6.05422E-04   1.16485E-04   1.53373E-04   4.12372E-12     3525.88  1
 3.56099E-03   6.22605E-04   1.16453E-04   1.53748E-04   4.22791E-12     3521.88  1
 3.58099E-03   6.38411E-04   1.16414E-04   1.53905E-04   4.32886E-12     3525.95  1
 3.60099E-03   6.52908E-04   1.16355E-04   1.53941E-04   4.42345E-12     3512.72  1
 3.62099E-03   6.67948E-04   1.16202E-04   1.53992E-04   4.50988E-12     3506.30  1
 3.64099E-03   6.84227E-04   1.16191E-04   1.53976E-04   4.59223E-12     3517.52  1
 3.66099E-03   6.97368E-04   1.16196E-04   1.54006E-04   4.66888E-12     3524.29  1
 3.68099E-03   7.14277E-04   1.16073E-04   1.53897E-04   4.73887E-12     3512.86  1
 3.70099E-03   7.27225E-04   1.15898E-04   1.53863E-04   4.80058E-12     3496.82  1
 3.72099E-03   7.43719E-04   1.15703E-04   1.53797E-04   4.85610E-12     3486.39  1
 3.74099E-03   7.57311E-04   1.15490E-04   1.53803E-04   4.90789E-12     3480.59  1
 3.76099E-03   7.73147E-04   1.15258E-04   1.53619E-04   4.95268E-12     3482.39  1
 3.78099E-03   7.87417E-04   1.15014E-04   1.53530E-04   4.98865E-12     3467.55  1
 3.80099E-03   8.02355E-04   1.14658E-04   1.53362E-04   5.01592E-12     3453.14  1
 3.82099E-03   8.19456E-04   1.14281E-04   1.53142E-04   5.03910E-12     3450.22  1
 3.84099E-03   8.35281E-04   1.14035E-04   1.52904E-04   5.05570E-12     3444.44  1
 3.86099E-03   8.48902E-04   1.13821E-04   1.52635E-04   5.06719E-12     3424.48  1
 3.88099E-03   8.64100E-04   1.13594E-04   1.52352E-04   5.07361E-12     3402.35  1
 3.90099E-03   8.76906E-04   1.13380E-04   1.52041E-04   5.07520E-12     3383.35  1
 3.92099E-03   8.94174E-04   1.13208E-04   1.51685E-04   4.91867E-12     3371.30  0
 3.94099E-03   8.89160E-04   1.12533E-04   1.51176E-04   4.75159E-12     2865.60  0
 3.96099E-03   8.86006E-04   1.09315E-04   1.50622E-04   4.57541E-12     2595.89  0
 3.98099E-03   8.83846E-04   1.07748E-04   1.50064E-04   4.39415E-12     2427.73  0
 4.00099E-03   8.75210E-04   1.04055E-04   1.48564E-04   4.19253E-12     2299.67  0
 4.02099E-03   8.72220E-04   1.01392E-04   1.48040E-04   4.00929E-12     2196.60  0
 4.04099E-03   8.69167E-04   9.82964E-05   1.47292E-04   3.82699E-12     2106.23  0
 4.06099E-03   8.61102E-04   9.47017E-05   1.46179E-04   3.64399E-12     2027.59  0
 4.08099E-03   8.57501E-04   9.24172E-05   1.44168E-04   3.46391E-12     1961.14  0
 4.10099E-03   8.49754E-04   8.85818E-05   1.41571E-04   3.28605E-12     1904.00  0
 4.12099E-03   8.45100E-04   8.53100E-05   1.40396E-04   3.11251E-12     1856.06  0
 4.14099E-03   8.37241E-04   8.28382E-05   1.39398E-04   2.94252E-12     1815.52  0
 4.16100E-03   8.31934E-04   7.91445E-05   1.38432E-04   2.77647E-12     1781.52  0
 4.18100E-03   8.22810E-04   7.65962E-05   1.37297E-04   2.61430E-12     1752.45  0
 4.20100E-03   8.15965E-04   7.27797E-05   1.34382E-04   2.38593E-12     1726.92  0
 4.22100E-03   8.06436E-04   6.96851E-05   1.38212E-04   2.22035E-12     1705.07  0
 4.24100E-03   7.97569E-04   6.76676E-05   1.35580E-04   2.06070E-12     1685.77  0
 4.26100E-03   7.91606E-04   6.42537E-05   1.34560E-04   1.90683E-12     1669.19  0
 4.28100E-03   7.81162E-04   6.24860E-05   1.33622E-04   1.75964E-12     1655.25  0
 4.30100E-03   7.70849E-04   5.91443E-05   1.32699E-04   1.61846E-12     1644.00  0
 4.32100E-03   7.60523E-04   5.74493E-05   1.31364E-04   1.48399E-12     1635.37  0
 4.34100E-03   7.50035E-04   5.42456E-05   1.27662E-04   1.35555E-12     1629.10  0
 4.36100E-03   7.39277E-04   5.26382E-05   1.25976E-04   1.23359E-12     1625.01  0
 4.38100E-03   7.29954E-04   4.95852E-05   1.24880E-04   1.11805E-12     1623.05  0
 4.40100E-03   7.17231E-04   4.75339E-05   1.21338E-04   9.83104E-13     1622.60  0
 4.42100E-03   7.07802E-04   4.46246E-05   1.23444E-04   9.51750E-13     1622.03  1
 4.44100E-03   4.64373E-05   1.03155E-04   4.30521E-05   1.01544E-12     1862.78  1
 4.46100E-03   7.33224E-05   1.09516E-04   6.09268E-05   1.05418E-12     2762.76  1
 4.48100E-03   9.64654E-05   1.11586E-04   7.03673E-05   1.10362E-12     3126.79  1
 4.50100E-03   1.17154E-04   1.12529E-04   7.33459E-05   1.15241E-12     3305.74  1
 4.52100E-03   1.37522E-04   1.12892E-04   7.48935E-05   1.20434E-12     3395.28  1
 4.54100E-03   1.57768E-04   1.13170E-04   7.62464E-05   1.26379E-12     3441.85  1
 4.56100E-03   1.77692E-04   1.13374E-04   7.74020E-05   1.33968E-12     3470.79  1
 4.58100E-03   1.97660E-04   1.13646E-04   8.25874E-05   1.42764E-12     3487.05  1
 4.60100E-03   2.17363E-04   1.13654E-04   8.45025E-05   1.53955E-12     3456.38  1
 4.62100E-03   2.36152E-04   1.14054E-04   9.25679E-05   1.64058E-12     3450.39  1
 4.64100E-03   2.55857E-04   1.14590E-04   9.47972E-05   1.74108E-12     3447.60  1
 4.66100E-03   2.75608E-04   1.15005E-04   9.62677E-05   1.84485E-12     3441.55  1
 4.68100E-03   2.94531E-04   1.15286E-04   9.93219E-05   1.95745E-12     3447.81  1
 4.70100E-03   3.14320E-04   1.15504E-04   1.08188E-04   2.08172E-12     3477.48  1
 4.72100E-03   3.33606E-04   1.15682E-04   1.15634E-04   2.21257E-12     3479.57  1
