# Melt Pool Geometry History
# time(s)  length(m)  depth(m)  width(m)  volume(m3)  Tpeak(K)  laser_on
 2.10000E-05   0.00000E+00   0.00000E+00   0.00000E+00   7.74362E-14      293.00  1
 4.10000E-05   4.45279E-05   1.03705E-04   4.02057E-05   2.26582E-13     1918.10  1
 6.10000E-05   7.38537E-05   1.09178E-04   5.53743E-05   3.68237E-13     2603.23  1
 8.10000E-05   9.91811E-05   1.10779E-04   6.18773E-05   5.05840E-13     2957.01  1
 1.01000E-04   1.23318E-04   1.11427E-04   6.39113E-05   6.33469E-13     3092.17  1
 1.21000E-04   1.47083E-04   1.11676E-04   6.52383E-05   7.51281E-13     3194.12  1
 1.41000E-04   1.70904E-04   1.11756E-04   6.61450E-05   8.70440E-13     3255.32  1
 1.61000E-04   1.93693E-04   1.11764E-04   6.65058E-05   9.82148E-13     3270.82  1
 1.81000E-04   2.18389E-04   1.11767E-04   6.67953E-05   9.42316E-13     3211.51  0
 2.01000E-04   2.20382E-04   1.08741E-04   6.70576E-05   8.96142E-13     2822.96  0
 2.21000E-04   2.20704E-04   1.05354E-04   7.15584E-05   8.54253E-13     2520.40  0
 2.41000E-04   2.20180E-04   1.01206E-04   7.30843E-05   8.07373E-13     2315.84  0
 2.61000E-04   2.19590E-04   9.73945E-05   7.37737E-05   7.61074E-13     2176.91  0
 2.81000E-04   2.18930E-04   9.28207E-05   7.41476E-05   7.17708E-13     2073.31  0
 3.01000E-04   2.18244E-04   8.81888E-05   7.43121E-05   6.76671E-13     1993.33  0
 3.21000E-04   2.17538E-04   8.37104E-05   7.42882E-05   6.38755E-13     1930.49  0
 3.41000E-04   2.16815E-04   7.92092E-05   7.40771E-05   6.02717E-13     1878.12  0
 3.61000E-04   2.16058E-04   7.46918E-05   7.36729E-05   5.67748E-13     1832.93  0
 3.81000E-04   2.15337E-04   7.05649E-05   7.30928E-05   5.33384E-13     1794.09  0
 4.01000E-04   2.14774E-04   6.67924E-05   7.23441E-05   4.98911E-13     1760.50  0
 4.21000E-04   2.14289E-04   6.28097E-05   7.14560E-05   4.64421E-13     1731.50  0
 4.41000E-04   2.13897E-04   5.84701E-05   7.04649E-05   4.29720E-13     1706.58  0
 4.61000E-04   2.13726E-04   5.44679E-05   6.94213E-05   3.94444E-13     1685.54  0
 4.81000E-04   2.13580E-04   5.10954E-05   6.83709E-05   3.59526E-13     1667.64  0
 5.01000E-04   2.13415E-04   4.79906E-05   6.73809E-05   3.24799E-13     1652.67  0
 5.21000E-04   2.13229E-04   4.43383E-05   6.65447E-05   2.90704E-13     1640.62  0
 5.41000E-04   2.13016E-04   4.17515E-05   6.60995E-05   2.57451E-13     1631.58  0
 5.61000E-04   2.12768E-04   3.86426E-05   6.59007E-05   2.25967E-13     1625.54  0
 5.81000E-04   2.12471E-04   3.58016E-05   6.57160E-05   1.95675E-13     1622.90  0
 6.01000E-04   2.04366E-04   3.29383E-05   6.13732E-05   1.50280E-13     1622.04  0
 6.21000E-04   2.05526E-04   2.98758E-05   7.13445E-05   1.23184E-13     1620.84  0
 6.41000E-04   2.01483E-04   2.80712E-05   7.15455E-05   9.89903E-14     1619.18  0
 6.61000E-04   1.90647E-04   2.52096E-05   7.16443E-05   7.73654E-14     1617.04  0
 6.81000E-04   1.74523E-04   2.33488E-05   7.16535E-05   1.39803E-13     1614.38  1
 7.01000E-04   4.50911E-05   1.03360E-04   4.28938E-05   2.85841E-13     1833.15  1
 7.21000E-04   7.60627E-05   1.09215E-04   6.00449E-05   4.13463E-13     2692.20  1
 7.41000E-04   9.94249E-05   1.10781E-04   6.53939E-05   5.43318E-13     2991.41  1
 7.61000E-04   1.24230E-04   1.11521E-04   6.78092E-05   6.75269E-13     3107.57  1
 7.81000E-04   1.48986E-04   1.12125E-04   7.35930E-05   8.21762E-13     3174.32  1
 8.01000E-04   1.70438E-04   1.12219E-04   8.30956E-05   9.88401E-13     3129.88  1
 8.21000E-04   1.96827E-04   1.12404E-04   9.40598E-05   1.14294E-12     3143.03  1
 8.41000E-04   2.18061E-04   1.12697E-04   1.00475E-04   1.29404E-12     3148.58  1
 8.61000E-04   2.40967E-04   1.12753E-04   1.04155E-04   1.44083E-12     3150.47  1
 8.81000E-04   2.66537E-04   1.12706E-04   1.06487E-04   1.58336E-12     3170.01  1
 9.01000E-04   2.86900E-04   1.12571E-04   1.08224E-04   1.71829E-12     3166.24  1
 9.21000E-04   3.09300E-04   1.12346E-04   1.11134E-04   1.85084E-12     3145.36  1
 9.41000E-04   3.36144E-04   1.12071E-04   1.12379E-04   1.96743E-12     3146.43  1
 9.61000E-04   3.56269E-04   1.11729E-04   1.13834E-04   2.08769E-12     3144.73  1
 9.81000E-04   3.77548E-04   1.11564E-04   1.14279E-04   2.19240E-12     3155.45  1
 1.00100E-03   4.00764E-04   1.11327E-04   1.14132E-04   2.12865E-12     3104.04  0
 1.02100E-03   4.00680E-04   1.08832E-04   1.16068E-04   2.05548E-12     2673.25  0
 1.04100E-03   4.00703E-04   1.06210E-04   1.15630E-04   1.97433E-12     2435.27  0
 1.06100E-03   4.00658E-04   1.03036E-04   1.14314E-04   1.88799E-12     2279.42  0
 1.08100E-03   4.00539E-04   9.88651E-05   1.13508E-04   1.79977E-12     2159.75  0
 1.10100E-03   4.00334E-04   9.51387E-05   1.12846E-04   1.71370E-12     2064.32  0
 1.12100E-03   4.00005E-04   9.19031E-05   1.12286E-04   1.62677E-12     1987.87  0
 1.14100E-03   3.99541E-04   8.80539E-05   1.11899E-04   1.54174E-12     1924.07  0
 1.16100E-03   3.98955E-04   8.39492E-05   1.11446E-04   1.45833E-12     1872.07  0
 1.18100E-03   3.98226E-04   8.04387E-05   1.10934E-04   1.37575E-12     1828.92  0
 1.20100E-03   3.97372E-04   7.76036E-05   1.10340E-04   1.29476E-12     1792.09  0
 1.22100E-03   3.96402E-04   7.36114E-05   1.09679E-04   1.21516E-12     1761.23  0
 1.24100E-03   3.95352E-04   7.03244E-05   1.08912E-04   1.13725E-12     1734.97  0
 1.26100E-03   3.94155E-04   6.77868E-05   1.08011E-04   1.06079E-12     1712.21  0
 1.28100E-03   3.82017E-04   6.42241E-05   1.07071E-04   9.86063E-13     1692.97  0
 1.30100E-03   3.73483E-04   6.18636E-05   1.05863E-04   9.12831E-13     1676.45  0
 1.32100E-03   3.65219E-04   5.87535E-05   1.05089E-04   8.41968E-13     1662.27  0
 1.34100E-03   3.58987E-04   5.61708E-05   1.04553E-04   7.73182E-13     1650.49  0
 1.36100E-03   3.54070E-04   5.35699E-05   1.04172E-04   7.06438E-13     1640.87  0
 1.38100E-03   3.47781E-04   5.09982E-05   1.03867E-04   6.42053E-13     1633.28  0
 1.40100E-03   3.42912E-04   4.83030E-05   9.81076E-05   5.47350E-13     1627.37  0
 1.42100E-03   3.36732E-04   4.57172E-05   1.03911E-04   4.84572E-13     1623.89  0
 1.44100E-03   3.32774E-04   4.36359E-05   1.03093E-04   4.26917E-13     1622.78  0
 1.46100E-03   3.25617E-04   4.14362E-05   1.02581E-04   3.72755E-13     1622.23  0
 1.48100E-03   3.21870E-04   3.90561E-05   1.02250E-04   3.23116E-13     1621.47  0
 1.50100E-03   3.13971E-04   3.75678E-05   1.02179E-04   3.53788E-13     1620.52  1
 1.52100E-03   5.02972E-05   1.03419E-04   4.17182E-05   4.75670E-13     1832.83  1
 1.54100E-03   7.31349E-05   1.09263E-04   6.04854E-05   5.77075E-13     2681.21  1
 1.56100E-03   9.73197E-05   1.10838E-04   6.88368E-05   6.91047E-13     2957.03  1
 1.58100E-03   1.19959E-04   1.11656E-04   7.15492E-05   7.96467E-13     3065.54  1
 1.60100E-03   1.42055E-04   1.11557E-04   7.41301E-05   9.30884E-13     3031.09  1
 1.62100E-03   1.64621E-04   1.12090E-04   8.09712E-05   1.06169E-12     3045.07  1
 1.64100E-03   1.89249E-04   1.12706E-04   9.09592E-05   1.20115E-12     3101.81  1
 1.66100E-03   3.48435E-04   1.12949E-04   1.78545E-04   1.35153E-12     3101.59  1
 1.68100E-03   3.37679E-04   1.13099E-04   1.73145E-04   1.50590E-12     3151.15  1
 1.70100E-03   3.26483E-04   1.13214E-04   1.68483E-04   1.66362E-12     3137.00  1
 1.72100E-03   3.15195E-04   1.13349E-04   1.62990E-04   1.81990E-12     3160.28  1
 1.74100E-03   3.06217E-04   1.13492E-04   1.59079E-04   1.97098E-12     3194.99  1
 1.76100E-03   3.28513E-04   1.13638E-04   1.53792E-04   2.13128E-12     3181.97  1
 1.78100E-03   3.50965E-04   1.13648E-04   1.49458E-04   2.28204E-12     3202.19  1
 1.80100E-03   3.72659E-04   1.13601E-04   1.46240E-04   2.42475E-12     3217.27  1
 1.82100E-03   3.94677E-04   1.13560E-04   1.43425E-04   2.56582E-12     3226.57  1
 1.84100E-03   4.19330E-04   1.13465E-04   1.42721E-04   2.69542E-12     3204.52  1
 1.86100E-03   4.41796E-04   1.13333E-04   1.42461E-04   2.81196E-12     3195.37  1
 1.88100E-03   4.63287E-04   1.13064E-04   1.42389E-04   2.92407E-12     3221.93  1
 1.90100E-03   4.87145E-04   1.12823E-04   1.42272E-04   3.01968E-12     3196.79  1
 1.92100E-03   5.09594E-04   1.12543E-04   1.42181E-04   3.10939E-12     3149.83  1
 1.94100E-03   5.32544E-04   1.12223E-04   1.42031E-04   3.18518E-12     3170.28  1
 1.96100E-03   5.56256E-04   1.11870E-04   1.41873E-04   3.26046E-12     3167.84  1
 1.98100E-03   5.77838E-04   1.11664E-04   1.41615E-04   3.16704E-12     3134.19  0
 2.00100E-03   5.75958E-04   1.09038E-04   1.39692E-04   3.05387E-12     2709.83  0
 2.02100E-03   5.82300E-04   1.07360E-04   1.40839E-04   2.93398E-12     2440.48  0
 2.04100E-03   5.82634E-04   1.03494E-04   1.39832E-04   2.80442E-12     2254.65  0
 2.06100E-03   5.76405E-04   9.98321E-05   1.39518E-04   2.67178E-12     2123.90  0
 2.08100E-03   5.72048E-04   9.69545E-05   1.39222E-04   2.54009E-12     2026.23  0
 2.10100E-03   5.64809E-04   9.31747E-05   1.38803E-04   2.41002E-12     1951.96  0
 2.12100E-03   5.58533E-04   8.92882E-05   1.38021E-04   2.28227E-12     1893.40  0
 2.14100E-03   5.53639E-04   8.60484E-05   1.37220E-04   2.15807E-12     1846.06  0
 2.16100E-03   5.46627E-04   8.29157E-05   1.35815E-04   2.03635E-12     1807.09  0
 2.18100E-03   5.42616E-04   7.90534E-05   1.33548E-04   1.91820E-12     1773.77  0
 2.20100E-03   5.31484E-04   7.55098E-05   1.29388E-04   1.73573E-12     1744.83  0
 2.22100E-03   5.34053E-04   7.29671E-05   1.33816E-04   1.60954E-12     1718.60  0
 2.24100E-03   5.29373E-04   6.95336E-05   1.33331E-04   1.48947E-12     1696.24  0
 2.26100E-03   5.20544E-04   6.75322E-05   1.32599E-04   1.37473E-12     1676.71  0
 2.28100E-03   5.15104E-04   6.40929E-05   1.31370E-04   1.26476E-12     1660.30  0
 2.30100E-03   5.07716E-04   6.21743E-05   1.28049E-04   1.15968E-12     1647.35  0
 2.32100E-03   5.00557E-04   5.90237E-05   1.25910E-04   1.05958E-12     1637.39  0
 2.34100E-03   4.93955E-04   5.72024E-05   1.24782E-04   9.64708E-13     1630.13  0
 2.36100E-03   4.84270E-04   5.41369E-05   1.23729E-04   8.75138E-13     1625.48  0
 2.38100E-03   4.74485E-04   5.26137E-05   1.22677E-04   7.90941E-13     1623.16  0
 2.40100E-03   4.61430E-04   4.93610E-05   1.18184E-04   6.94331E-13     1622.58  0
 2.42100E-03   4.53144E-04   4.78058E-05   1.16099E-04   6.18374E-13     1621.99  0
 2.44100E-03   4.38795E-04   4.49455E-05   1.14560E-04   5.48027E-13     1621.25  0
 2.46100E-03   4.30893E-04   4.32204E-05   1.12610E-04   4.82908E-13     1620.36  0
 2.48100E-03   4.15757E-04   4.08510E-05   1.08693E-04   5.02758E-13     1619.33  1
 2.50100E-03   5.02230E-05   1.03222E-04   4.05387E-05   6.05079E-13     1834.57  1
 2.52100E-03   7.41991E-05   1.09223E-04   6.17036E-05   6.97740E-13     2699.11  1
 2.54100E-03   9.98167E-05   1.10674E-04   6.82807E-05   7.93055E-13     2957.62  1
 2.56100E-03   1.27221E-04   1.11402E-04   7.12685E-05   8.85661E-13     3068.12  1
 2.58100E-03   1.47694E-04   1.11972E-04   7.28128E-05   9.88532E-13     3115.74  1
 2.60100E-03   1.68490E-04   1.11800E-04   7.73931E-05   1.12264E-12     3051.70  1
 2.62100E-03   1.95343E-04   1.12239E-04   8.31087E-05   1.24466E-12     3075.00  1
 2.64100E-03   2.17126E-04   1.12790E-04   9.24736E-05   1.37438E-12     3117.76  1
 2.66100E-03   2.40516E-04   1.13066E-04   9.75513E-05   1.50709E-12     3147.81  1
 2.68100E-03   2.65846E-04   1.13246E-04   1.05064E-04   1.65013E-12     3171.10  1
 2.70100E-03   2.87196E-04   1.13447E-04   1.16868E-04   1.80397E-12     3175.46  1
 2.72100E-03   4.54316E-04   1.13620E-04   1.77344E-04   1.95623E-12     3199.84  1
 2.74100E-03   4.40255E-04   1.13818E-04   1.70856E-04   2.11201E-12     3220.09  1
 2.76100E-03   4.22645E-04   1.14005E-04   1.68410E-04   2.27336E-12     3206.81  1
 2.78100E-03   4.01626E-04   1.14124E-04   1.61214E-04   2.42760E-12     3218.93  1
 2.80100E-03   4.03444E-04   1.14205E-04   1.50885E-04   2.57832E-12     3236.10  1
 2.82100E-03   4.26274E-04   1.14314E-04   1.44013E-04   2.73342E-12     3247.61  1
 2.84100E-03   4.48540E-04   1.14407E-04   1.43571E-04   2.87885E-12     3255.42  1
 2.86100E-03   4.71749E-04   1.14390E-04   1.43576E-04   3.01850E-12     3256.79  1
 2.88100E-03   4.96443E-04   1.14462E-04   1.43905E-04   3.15205E-12     3278.84  1
 2.90100E-03   5.17991E-04   1.14384E-04   1.44190E-04   3.27908E-12     3257.63  1
 2.92100E-03   5.40893E-04   1.14249E-04   1.44488E-04   3.39682E-12     3268.82  1
 2.94100E-03   5.65820E-04   1.14070E-04   1.44734E-04   3.50932E-12     3277.33  1
 2.96100E-03   5.86983E-04   1.13960E-04   1.44953E-04   3.61275E-12     3250.01  1
 2.98100E-03   6.09567E-04   1.13800E-04   1.44986E-04   3.70668E-12     3239.02  1
 3.00100E-03   6.34188E-04   1.13568E-04   1.45016E-04   3.78556E-12     3247.70  1
 3.02100E-03   6.54214E-04   1.13312E-04   1.44988E-04   3.86082E-12     3252.55  1
 3.04100E-03   6.68338E-04   1.13084E-04   1.44911E-04   3.92535E-12     3240.32  1
 3.06100E-03   6.86471E-04   1.12829E-04   1.44784E-04   3.98238E-12     3224.37  1
 3.08100E-03   7.05511E-04   1.12562E-04   1.44570E-04   4.03065E-12     3223.33  1
 3.10100E-03   7.19792E-04   1.12245E-04   1.44349E-04   4.06653E-12     3195.46  1
 3.12100E-03   7.37814E-04   1.11977E-04   1.44106E-04   4.09678E-12     3149.62  1
 3.14100E-03   7.54986E-04   1.11705E-04   1.43849E-04   3.96305E-12     3151.92  0
 3.16100E-03   7.53702E-04   1.09186E-04   1.43623E-04   3.81681E-12     2737.41  0
 3.18100E-03   7.48382E-04   1.07648E-04   1.43334E-04   3.66749E-12     2486.16  0
 3.20100E-03   7.43063E-04   1.03503E-04   1.41377E-04   3.50179E-12     2307.50  0
 3.22100E-03   7.39686E-04   1.00062E-04   1.42987E-04   3.34909E-12     2168.72  0
 3.24100E-03   7.34095E-04   9.72962E-05   1.41009E-04   3.18923E-12     2057.03  0
 3.26100E-03   7.28764E-04   9.33383E-05   1.40200E-04   3.02837E-12     1970.09  0
 3.28100E-03   7.23223E-04   8.95279E-05   1.39526E-04   2.86906E-12     1901.44  0
 3.30100E-03   7.17676E-04   8.64954E-05   1.38859E-04   2.71225E-12     1849.24  0
 3.32100E-03   7.12233E-04   8.30817E-05   1.37902E-04   2.55894E-12     1807.75  0
 3.34100E-03   7.06679E-04   7.93522E-05   1.36875E-04   2.40893E-12     1772.57  0
 3.36100E-03   7.00654E-04   7.63768E-05   1.35375E-04   2.26307E-12     1743.30  0
 3.38100E-03   6.95354E-04   7.32302E-05   1.32714E-04   2.12060E-12     1718.19  0
 3.40100E-03   6.87333E-04   6.93825E-05   1.28830E-04   1.91426E-12     1696.19  0
 3.42100E-03   6.81508E-04   6.71553E-05   1.33710E-04   1.76428E-12     1676.77  0
 3.44100E-03   6.75042E-04   6.38645E-05   1.33058E-04   1.62374E-12     1660.09  0
 3.46100E-03   6.68036E-04   6.13767E-05   1.32311E-04   1.49049E-12     1646.63  0
 3.48100E-03   6.59087E-04   5.86850E-05   1.31088E-04   1.36418E-12     1636.50  0
 3.50099E-03   6.51379E-04   5.61878E-05   1.27735E-04   1.24438E-12     1629.45  0
 3.52099E-03   6.44817E-04   5.37037E-05   1.25821E-04   1.13099E-12     1624.97  0
 3.54099E-03   6.34091E-04   5.14468E-05   1.24711E-04   1.02446E-12     1622.97  0
 3.56099E-03   6.17199E-04   4.89534E-05   1.23663E-04   9.23962E-13     1622.51  0
 3.58099E-03   6.00777E-04   4.72985E-05   1.22609E-04   8.29620E-13     1621.87  0
 3.60099E-03   5.84532E-04   4.43364E-05   1.18261E-04   7.27511E-13     1620.90  0
 3.62099E-03   5.71807E-04   4.28795E-05   1.15884E-04   6.43742E-13     1619.93  0
 3.64099E-03   5.58673E-04   4.02396E-05   1.13593E-04   6.41532E-13     1618.83  1
 3.66099E-03   4.94135E-05   1.03505E-04   4.07837E-05   7.33356E-13     1841.90  1
 3.68099E-03   7.21482E-05   1.09339E-04   6.13553E-05   8.11213E-13     2710.30  1
 3.70099E-03   9.93510E-05   1.10829E-04   6.83201E-05   8.98650E-13     2970.77  1
 3.72099E-03   1.23474E-04   1.11631E-04   7.15193E-05   9.82833E-13     3065.64  1
 3.74099E-03   1.47507E-04   1.12247E-04   7.36616E-05   1.07678E-12     3116.15  1
 3.76099E-03   1.70446E-04   1.12642E-04   7.67603E-05   1.18485E-12     3138.20  1
 3.78099E-03   1.93717E-04   1.12915E-04   8.70521E-05   1.30126E-12     3173.01  1
 3.80099E-03   2.17439E-04   1.12743E-04   9.66850E-05   1.46451E-12     3095.64  1
 3.82099E-03   2.39827E-04   1.13117E-04   1.04160E-04   1.60008E-12     3105.81  1
 3.84099E-03   5.84993E-04   1.13394E-04   1.86909E-04   1.74242E-12     3149.44  1
 3.86099E-03   5.72772E-04   1.13665E-04   1.82771E-04   1.89374E-12     3177.59  1
 3.88099E-03   5.56219E-04   1.13848E-04   1.79777E-04   2.04525E-12     3180.75  1
 3.90099E-03   5.42167E-04   1.13985E-04   1.78128E-04   2.19639E-12     3210.66  1
 3.92099E-03   5.23276E-04   1.14326E-04   1.73186E-04   2.35233E-12     3238.54  1
 3.94099E-03   5.03034E-04   1.14443E-04   1.70013E-04   2.50572E-12     3211.51  1
 3.96099E-03   4.01355E-04   1.14495E-04   1.43972E-04   2.65724E-12     3240.49  1
 3.98099E-03   4.22713E-04   1.14756E-04   1.43974E-04   2.81446E-12     3274.89  1
 4.00099E-03   4.45087E-04   1.14628E-04   1.44327E-04   2.95538E-12     3244.19  1
 4.02099E-03   4.75446E-04   1.14647E-04   1.44628E-04   3.10040E-12     3222.25  1
 4.04099E-03   4.97865E-04   1.14824E-04   1.44856E-04   3.23591E-12     3250.05  1
 4.06099E-03   5.20914E-04   1.14932E-04   1.45073E-04   3.36863E-12     3282.02  1
 4.08099E-03   5.45196E-04   1.15011E-04   1.45217E-04   3.49959E-12     3295.89  1
 4.10099E-03   5.67377E-04   1.14934E-04   1.45374E-04   3.62216E-12     3254.41  1
 4.12099E-03   5.89958E-04   1.14864E-04   1.45628E-04   3.73736E-12     3279.53  1
 4.14099E-03   6.09009E-04   1.14927E-04   1.45870E-04   3.85048E-12     3307.21  1
 4.16100E-03   6.30291E-04   1.14833E-04   1.45867E-04   3.95711E-12     3272.69  1
 4.18100E-03   6.50209E-04   1.14711E-04   1.46021E-04   4.05499E-12     3256.22  1
 4.20100E-03   6.65363E-04   1.14567E-04   1.46087E-04   4.14814E-12     3284.28  1
 4.22100E-03   6.82963E-04   1.14453E-04   1.46108E-04   4.23404E-12     3276.67  1
 4.24100E-03   7.01613E-04   1.14363E-04   1.46183E-04   4.31508E-12     3260.45  1
 4.26100E-03   7.21159E-04   1.14178E-04   1.46091E-04   4.38644E-12     3262.29  1
 4.28100E-03   7.38480E-04   1.13955E-04   1.46082E-04   4.45066E-12     3283.34  1
 4.30100E-03   7.57537E-04   1.13780E-04   1.46003E-04   4.50696E-12     3239.20  1
 4.32100E-03   7.73477E-04   1.13562E-04   1.45901E-04   4.55445E-12     3249.93  1
 4.34100E-03   7.91829E-04   1.13297E-04   1.45743E-04   4.59683E-12     3265.51  1
 4.36100E-03   8.09790E-04   1.13074E-04   1.45572E-04   4.62551E-12     3234.00  1
 4.38100E-03   8.28820E-04   1.12798E-04   1.45395E-04   4.65149E-12     3183.22  1
 4.40100E-03   8.45219E-04   1.12570E-04   1.45145E-04   4.67213E-12     3207.18  1
 4.42100E-03   8.65142E-04   1.12235E-04   1.44851E-04   4.67758E-12     3191.12  1
 4.44100E-03   8.81259E-04   1.12065E-04   1.44564E-04   4.67794E-12     3135.11  1
 4.46100E-03   9.01752E-04   1.11808E-04   1.44108E-04   4.51498E-12     3161.01  0
 4.48100E-03   8.97305E-04   1.09345E-04   1.43552E-04   4.33894E-12     2729.53  0
 4.50100E-03   8.95227E-04   1.07742E-04   1.43037E-04   4.15968E-12     2480.66  0
 4.52100E-03   8.89378E-04   1.03815E-04   1.42476E-04   3.97572E-12     2308.55  0
 4.54100E-03   8.84273E-04   1.00360E-04   1.41615E-04   3.79032E-12     2185.80  0
 4.56100E-03   8.79415E-04   9.76998E-05   1.40694E-04   3.60808E-12     2092.20  0
 4.58100E-03   8.72365E-04   9.35196E-05   1.39368E-04   3.43013E-12     2014.86  0
 4.60100E-03   8.64994E-04   8.92487E-05   1.37192E-04   3.21212E-12     1949.52  0
 4.62100E-03   8.62254E-04   8.62951E-05   1.36679E-04   3.03030E-12     1889.82  0
 4.64100E-03   8.55054E-04   8.29996E-05   1.36078E-04   2.84770E-12     1836.07  0
 4.66100E-03   8.49831E-04   7.91411E-05   1.35613E-04   2.66795E-12     1790.82  0
 4.68100E-03   8.41216E-04   7.60473E-05   1.34970E-04   2.49163E-12     1752.61  0
 4.70100E-03   8.36847E-04   7.31060E-05   1.34105E-04   2.32013E-12     1720.81  0
 4.72100E-03   8.27535E-04   6.94621E-05   1.33246E-04   2.15350E-12     1695.11  0
