# Melt Pool Geometry History
# time(s)  length(m)  depth(m)  width(m)  volume(m3)  Tpeak(K)  laser_on
 2.10000E-05   0.00000E+00   0.00000E+00   0.00000E+00   7.49855E-14      293.00  1
 4.10000E-05   4.05445E-05   1.03342E-04   4.12006E-05   2.10104E-13     1913.62  1
 6.10000E-05   7.45119E-05   1.08135E-04   5.04529E-05   3.41359E-13     2435.76  1
 8.10000E-05   1.06042E-04   1.08260E-04   5.48549E-05   4.68544E-13     2556.91  1
 1.01000E-04   1.38488E-04   1.08453E-04   5.58741E-05   6.01527E-13     2556.77  1
 1.21000E-04   1.71440E-04   1.08545E-04   5.58815E-05   7.04504E-13     2509.47  1
 1.41000E-04   2.04185E-04   1.08584E-04   5.66656E-05   8.08619E-13     2627.63  1
 1.61000E-04   2.34065E-04   1.08568E-04   5.67735E-05   9.12067E-13     2596.60  1
 1.81000E-04   2.63156E-04   1.08462E-04   5.68013E-05   1.00823E-12     2604.68  1
 2.01000E-04   2.87196E-04   1.06700E-04   5.66336E-05   1.03874E-12     2474.24  1
 2.21000E-04   3.29559E-04   1.07890E-04   6.14428E-05   1.13272E-12     2415.23  1
 2.41000E-04   3.60798E-04   1.07962E-04   6.22690E-05   1.04980E-12     2471.32  0
 2.61000E-04   3.61543E-04   1.02884E-04   6.25598E-05   9.64408E-13     2174.71  0
 2.81000E-04   3.62477E-04   9.76322E-05   6.26085E-05   8.84621E-13     2020.12  0
 3.01000E-04   3.62808E-04   9.06734E-05   6.24277E-05   8.13987E-13     1927.21  0
 3.21000E-04   3.62757E-04   8.37522E-05   6.20584E-05   7.51194E-13     1862.83  0
 3.41000E-04   3.62534E-04   7.67763E-05   6.15334E-05   6.94328E-13     1813.13  0
 3.61000E-04   3.62211E-04   6.88491E-05   6.08384E-05   6.40579E-13     1772.17  0
 3.81000E-04   3.61827E-04   6.22952E-05   6.00138E-05   5.89491E-13     1738.28  0
 4.01000E-04   3.58576E-04   5.58563E-05   5.77793E-05   5.08742E-13     1709.94  0
 4.21000E-04   3.55273E-04   5.10901E-05   6.09393E-05   4.60244E-13     1684.18  0
 4.41000E-04   3.48622E-04   4.74541E-05   5.95672E-05   4.13091E-13     1663.21  0
 4.61000E-04   3.41265E-04   4.33396E-05   5.83321E-05   3.67636E-13     1647.36  0
 4.81000E-04   3.31804E-04   3.97726E-05   5.72873E-05   3.24464E-13     1635.03  0
 5.01000E-04   3.22512E-04   3.75802E-05   5.65194E-05   2.83555E-13     1626.96  0
 5.21000E-04   3.13550E-04   3.40904E-05   5.61122E-05   2.45229E-13     1623.05  0
 5.41000E-04   3.05145E-04   3.20645E-05   5.57803E-05   2.09499E-13     1622.17  0
 5.61000E-04   2.97434E-04   2.90306E-05   5.54868E-05   1.76086E-13     1620.96  0
 5.81000E-04   2.90542E-04   2.74483E-05   5.52103E-05   1.45101E-13     1619.38  0
 6.01000E-04   2.76525E-04   2.43305E-05   5.44279E-05   1.13468E-13     1617.28  0
 6.21000E-04   2.62615E-04   2.28882E-05   5.51199E-05   8.80245E-14     1614.83  0
 6.41000E-04   2.44553E-04   2.01082E-05   5.46710E-05   6.54610E-14     1611.84  0
 6.61000E-04   2.24094E-04   1.84517E-05   5.42030E-05   4.62352E-14     1608.29  0
 6.81000E-04   2.03706E-04   1.64186E-05   5.36598E-05   2.99800E-14     1604.11  0
 7.01000E-04   1.77999E-04   1.41024E-05   5.30374E-05   1.70790E-14     1599.18  0
 7.21000E-04   1.52290E-04   1.26897E-05   5.22111E-05   7.85156E-15     1593.62  0
 7.41000E-04   1.20105E-04   9.49437E-06   4.51355E-05   7.34270E-14     1586.57  1
 7.61000E-04   4.35824E-05   1.03479E-04   4.13546E-05   2.23168E-13     1852.33  1
 7.81000E-04   7.81361E-05   1.07903E-04   5.48084E-05   3.52964E-13     2451.59  1
 8.01000E-04   1.08243E-04   1.07232E-04   5.83929E-05   4.83498E-13     2535.50  1
 8.21000E-04   1.41694E-04   1.07922E-04   6.47227E-05   6.15553E-13     2521.28  1
 8.41000E-04   1.74527E-04   1.07983E-04   6.63294E-05   7.30476E-13     2522.91  1
 8.61000E-04   2.05162E-04   1.08005E-04   6.74033E-05   8.34252E-13     2582.90  1
 8.81000E-04   2.35536E-04   1.08004E-04   6.77732E-05   9.34065E-13     2572.41  1
 9.01000E-04   2.66481E-04   1.07994E-04   6.79104E-05   1.02654E-12     2555.49  1
 9.21000E-04   2.97943E-04   1.07965E-04   6.79197E-05   1.11557E-12     2541.63  1
 9.41000E-04   3.30312E-04   1.07989E-04   6.78902E-05   1.20117E-12     2524.15  1
 9.61000E-04   3.61436E-04   1.08058E-04   6.77598E-05   1.28606E-12     2513.14  1
 9.81000E-04   3.91578E-04   1.08085E-04   6.76039E-05   1.36856E-12     2487.99  1
 1.00100E-03   4.20252E-04   1.07874E-04   6.73966E-05   1.42965E-12     2481.94  1
 1.02100E-03   4.57207E-04   1.08094E-04   6.72311E-05   1.50002E-12     2529.70  1
 1.04100E-03   4.87343E-04   1.08086E-04   6.70950E-05   1.56176E-12     2529.40  1
 1.06100E-03   5.16433E-04   1.08069E-04   6.69403E-05   1.61715E-12     2586.19  1
 1.08100E-03   5.44800E-04   1.08025E-04   6.70303E-05   1.66520E-12     2587.31  1
 1.10100E-03   5.70117E-04   1.07971E-04   6.71083E-05   1.71079E-12     2574.14  1
 1.12100E-03   5.98208E-04   1.07898E-04   6.71176E-05   1.75556E-12     2538.10  1
 1.14100E-03   6.24935E-04   1.07887E-04   6.71144E-05   1.79611E-12     2518.40  1
 1.16100E-03   6.51721E-04   1.07938E-04   6.71132E-05   1.83797E-12     2511.73  1
 1.18100E-03   6.75689E-04   1.07953E-04   6.70279E-05   1.70903E-12     2489.28  0
 1.20100E-03   6.70337E-04   1.02793E-04   6.67402E-05   1.56845E-12     2163.65  0
 1.22100E-03   6.66108E-04   9.75770E-05   6.70819E-05   1.44743E-12     2015.06  0
 1.24100E-03   6.61257E-04   9.04765E-05   6.68013E-05   1.33753E-12     1929.18  0
 1.26100E-03   6.54834E-04   8.37065E-05   6.63543E-05   1.23701E-12     1867.58  0
 1.28100E-03   6.48061E-04   7.72746E-05   6.11895E-05   1.14360E-12     1819.15  0
 1.30100E-03   6.43000E-04   6.91153E-05   6.05616E-05   1.05473E-12     1779.06  0
 1.32100E-03   6.34754E-04   6.29716E-05   5.98188E-05   9.69797E-13     1745.91  0
 1.34100E-03   6.27739E-04   5.73894E-05   5.89882E-05   8.87394E-13     1717.49  0
 1.36100E-03   6.21769E-04   5.26359E-05   5.81082E-05   8.07298E-13     1693.75  0
 1.38100E-03   6.12629E-04   4.81542E-05   5.72134E-05   7.28992E-13     1673.62  0
 1.40100E-03   6.01323E-04   4.41813E-05   5.57132E-05   6.41315E-13     1656.59  0
 1.42100E-03   5.94063E-04   4.15055E-05   5.56660E-05   5.68763E-13     1642.97  0
 1.44100E-03   5.82158E-04   3.85229E-05   5.54006E-05   4.99570E-13     1632.67  0
 1.46100E-03   5.67948E-04   3.58291E-05   5.52490E-05   4.34689E-13     1626.02  0
 1.48100E-03   5.53790E-04   3.34731E-05   5.51027E-05   3.74323E-13     1622.96  0
 1.50100E-03   5.35494E-04   3.10612E-05   5.49547E-05   3.18224E-13     1622.13  0
 1.52100E-03   5.15391E-04   2.88048E-05   5.47981E-05   2.66531E-13     1620.92  0
 1.54100E-03   4.92897E-04   2.70762E-05   5.46256E-05   2.19229E-13     1619.31  0
 1.56100E-03   4.68276E-04   2.43608E-05   5.44317E-05   1.76178E-13     1617.28  0
 1.58100E-03   4.36204E-04   2.29687E-05   5.42102E-05   1.37783E-13     1614.84  0
 1.60100E-03   3.98770E-04   2.03900E-05   5.33636E-05   1.01159E-13     1611.89  0
 1.62100E-03   3.58266E-04   1.86832E-05   5.37437E-05   7.24195E-14     1608.50  0
 1.64100E-03   3.17733E-04   1.71665E-05   5.33356E-05   4.83564E-14     1604.59  0
 1.66100E-03   2.76598E-04   1.44884E-05   5.28356E-05   2.89054E-14     1599.94  0
 1.68100E-03   2.34581E-04   1.30759E-05   5.22179E-05   9.16082E-14     1594.64  1
 1.70100E-03   4.51986E-05   1.03293E-04   4.30684E-05   2.24139E-13     1841.83  1
 1.72100E-03   7.82328E-05   1.07950E-04   5.48738E-05   3.47747E-13     2493.78  1
 1.74100E-03   1.08518E-04   1.08182E-04   5.72783E-05   4.64093E-13     2529.46  1
 1.76100E-03   1.38952E-04   1.08188E-04   5.79664E-05   5.81118E-13     2552.74  1
 1.78100E-03   1.70295E-04   1.08151E-04   6.08998E-05   6.92475E-13     2565.34  1
 1.80100E-03   2.00331E-04   1.07561E-04   6.06152E-05   8.27330E-13     2513.92  1
 1.82100E-03   2.34985E-04   1.07913E-04   6.58439E-05   9.40721E-13     2481.25  1
 1.84100E-03   2.65161E-04   1.08013E-04   6.70323E-05   1.04493E-12     2471.26  1
 1.86100E-03   2.93424E-04   1.08049E-04   6.77165E-05   1.12632E-12     2520.93  1
 1.88100E-03   3.23236E-04   1.08054E-04   6.79288E-05   1.21111E-12     2509.87  1
 1.90100E-03   3.53652E-04   1.08043E-04   6.79752E-05   1.29229E-12     2464.12  1
 1.92100E-03   3.85164E-04   1.08014E-04   6.78590E-05   1.36644E-12     2497.08  1
 1.94100E-03   4.18391E-04   1.08013E-04   6.78226E-05   1.44472E-12     2510.51  1
 1.96100E-03   4.51422E-04   1.08090E-04   6.77402E-05   1.51576E-12     2484.59  1
 1.98100E-03   4.83068E-04   1.08135E-04   6.76307E-05   1.57745E-12     2494.08  1
 2.00100E-03   5.08028E-04   1.07947E-04   6.75898E-05   1.63217E-12     2498.45  1
 2.02100E-03   5.45277E-04   1.08167E-04   6.76220E-05   1.69038E-12     2492.40  1
 2.04100E-03   5.73245E-04   1.08187E-04   6.76409E-05   1.73885E-12     2492.61  1
 2.06100E-03   5.97404E-04   1.08187E-04   6.76907E-05   1.78222E-12     2512.57  1
 2.08100E-03   6.22352E-04   1.08183E-04   6.77376E-05   1.82821E-12     2484.91  1
 2.10100E-03   6.46442E-04   1.08162E-04   6.77962E-05   1.87005E-12     2468.90  1
 2.12100E-03   6.74216E-04   1.08124E-04   6.78691E-05   1.90662E-12     2511.78  1
 2.14100E-03   7.00500E-04   1.08125E-04   6.78718E-05   1.94262E-12     2516.98  1
 2.16100E-03   7.28242E-04   1.08183E-04   6.78410E-05   1.97694E-12     2496.88  1
 2.18100E-03   7.53221E-04   1.08203E-04   6.77989E-05   2.00011E-12     2479.43  1
 2.20100E-03   7.74173E-04   1.07967E-04   6.77296E-05   2.03154E-12     2490.17  1
 2.22100E-03   8.06292E-04   1.08178E-04   6.77198E-05   2.05195E-12     2461.32  1
 2.24100E-03   8.27219E-04   1.08143E-04   6.76775E-05   2.06809E-12     2519.97  1
 2.26100E-03   8.52185E-04   1.08089E-04   6.76119E-05   2.08154E-12     2511.69  1
 2.28100E-03   8.75275E-04   1.08033E-04   6.75587E-05   2.09676E-12     2458.74  1
 2.30100E-03   8.98085E-04   1.07962E-04   6.75361E-05   2.10811E-12     2464.14  1
 2.32100E-03   9.24330E-04   1.07879E-04   6.75864E-05   2.11486E-12     2497.95  1
 2.34100E-03   9.50598E-04   1.07916E-04   6.75722E-05   2.12532E-12     2495.84  1
 2.36100E-03   9.70892E-04   1.07954E-04   6.74781E-05   1.96475E-12     2482.24  0
 2.38100E-03   9.55683E-04   1.02930E-04   6.73605E-05   1.80682E-12     2180.97  0
 2.40100E-03   9.39763E-04   9.76450E-05   6.59928E-05   1.63183E-12     2034.55  0
 2.42100E-03   9.19907E-04   9.11006E-05   6.60861E-05   1.49875E-12     1944.34  0
 2.44100E-03   8.99334E-04   8.41017E-05   6.60183E-05   1.37674E-12     1878.72  0
 2.46100E-03   8.75768E-04   7.78789E-05   6.57837E-05   1.26392E-12     1826.68  0
 2.48100E-03   8.50327E-04   7.00617E-05   6.54733E-05   1.15819E-12     1784.85  0
 2.50100E-03   8.24805E-04   6.37089E-05   6.50967E-05   1.05842E-12     1749.74  0
 2.52100E-03   7.99536E-04   5.80791E-05   6.46527E-05   9.63199E-13     1720.60  0
 2.54100E-03   7.74492E-04   5.31866E-05   6.41637E-05   8.72060E-13     1695.85  0
 2.56100E-03   7.49546E-04   4.87252E-05   6.36601E-05   7.84386E-13     1675.20  0
 2.58100E-03   7.21731E-04   4.49829E-05   6.31359E-05   7.00352E-13     1657.98  0
 2.60100E-03   6.93623E-04   4.20251E-05   5.51456E-05   6.08527E-13     1643.80  0
 2.62100E-03   6.72828E-04   3.86956E-05   5.54956E-05   5.33178E-13     1632.99  0
 2.64100E-03   6.48023E-04   3.61510E-05   5.53473E-05   4.63083E-13     1626.15  0
 2.66100E-03   6.20661E-04   3.35823E-05   5.52018E-05   3.98288E-13     1622.98  0
 2.68100E-03   5.94645E-04   3.12786E-05   5.50520E-05   3.38310E-13     1622.18  0
 2.70100E-03   5.65146E-04   2.89013E-05   5.48937E-05   2.83221E-13     1621.00  0
 2.72100E-03   5.36953E-04   2.73709E-05   5.47193E-05   2.33104E-13     1619.42  0
 2.74100E-03   5.02120E-04   2.44831E-05   5.45240E-05   1.87487E-13     1617.42  0
 2.76100E-03   4.65905E-04   2.30698E-05   5.43036E-05   1.46954E-13     1615.03  0
 2.78100E-03   4.24962E-04   2.06379E-05   5.40510E-05   1.11262E-13     1612.17  0
 2.80100E-03   3.81250E-04   1.88136E-05   5.31370E-05   7.82938E-14     1608.76  0
 2.82100E-03   3.40826E-04   1.75317E-05   5.34182E-05   5.26640E-14     1604.91  0
 2.84100E-03   2.97629E-04   1.46602E-05   5.29326E-05   3.18220E-14     1600.36  0
 2.86100E-03   2.53297E-04   1.32084E-05   5.23290E-05   1.05686E-13     1595.20  1
 2.88100E-03   4.45761E-05   1.03754E-04   4.13073E-05   2.31335E-13     1867.07  1
 2.90100E-03   7.76569E-05   1.07799E-04   5.53612E-05   3.57703E-13     2452.97  1
 2.92100E-03   1.11210E-04   1.08031E-04   5.93942E-05   4.83366E-13     2575.47  1
 2.94100E-03   1.43810E-04   1.08139E-04   6.10788E-05   6.06373E-13     2585.64  1
 2.96100E-03   1.76373E-04   1.08200E-04   6.18505E-05   7.22627E-13     2581.52  1
 2.98100E-03   2.06752E-04   1.08239E-04   6.23272E-05   8.33405E-13     2658.27  1
 3.00100E-03   2.36614E-04   1.07740E-04   6.16502E-05   9.27712E-13     2582.74  1
 3.02100E-03   2.66784E-04   1.07935E-04   6.60696E-05   1.02691E-12     2576.41  1
 3.04100E-03   2.97930E-04   1.07962E-04   6.74236E-05   1.12132E-12     2540.54  1
 3.06100E-03   3.30181E-04   1.07986E-04   6.83190E-05   1.20861E-12     2513.72  1
 3.08100E-03   3.61972E-04   1.08060E-04   6.86729E-05   1.29546E-12     2511.06  1
 3.10100E-03   3.93968E-04   1.08091E-04   6.87796E-05   1.36733E-12     2498.11  1
 3.12100E-03   4.24665E-04   1.08118E-04   6.86793E-05   1.43172E-12     2572.38  1
 3.14100E-03   4.55157E-04   1.08114E-04   6.84817E-05   1.49739E-12     2560.80  1
 3.16100E-03   4.86165E-04   1.08097E-04   6.82803E-05   1.55779E-12     2538.51  1
 3.18100E-03   5.17714E-04   1.08064E-04   6.82238E-05   1.61480E-12     2534.38  1
 3.20100E-03   5.49052E-04   1.08026E-04   6.81459E-05   1.66773E-12     2522.98  1
 3.22100E-03   5.80740E-04   1.08157E-04   6.80512E-05   1.72692E-12     2521.55  1
 3.24100E-03   6.07311E-04   1.08184E-04   6.79875E-05   1.77180E-12     2497.35  1
 3.26100E-03   6.29968E-04   1.08207E-04   6.80092E-05   1.81227E-12     2589.35  1
 3.28100E-03   6.54058E-04   1.08205E-04   6.80035E-05   1.85495E-12     2584.96  1
 3.30100E-03   6.76547E-04   1.08189E-04   6.79545E-05   1.89268E-12     2546.05  1
 3.32100E-03   7.00464E-04   1.08157E-04   6.79924E-05   1.92583E-12     2537.72  1
 3.34100E-03   7.27525E-04   1.08166E-04   6.81182E-05   1.95875E-12     2533.04  1
 3.36100E-03   7.52015E-04   1.08230E-04   6.81967E-05   1.99633E-12     2521.80  1
 3.38100E-03   7.76323E-04   1.08250E-04   6.81960E-05   2.02170E-12     2495.96  1
 3.40100E-03   8.00088E-04   1.08081E-04   6.81476E-05   2.04598E-12     2529.04  1
 3.42100E-03   8.25515E-04   1.08304E-04   6.81020E-05   2.07563E-12     2530.02  1
 3.44100E-03   8.49479E-04   1.08299E-04   6.80166E-05   2.09351E-12     2526.27  1
 3.46100E-03   8.75204E-04   1.08297E-04   6.78998E-05   2.11706E-12     2590.60  1
 3.48100E-03   8.95997E-04   1.08287E-04   6.78589E-05   2.13101E-12     2579.19  1
 3.50099E-03   9.17567E-04   1.08263E-04   6.78285E-05   2.14439E-12     2593.04  1
 3.52099E-03   9.39287E-04   1.08222E-04   6.78495E-05   2.16025E-12     2550.70  1
 3.54099E-03   9.61252E-04   1.08213E-04   6.78527E-05   2.17269E-12     2535.69  1
 3.56099E-03   9.81330E-04   1.08257E-04   6.78772E-05   2.18953E-12     2532.55  1
 3.58099E-03   9.98020E-04   1.08255E-04   6.78351E-05   2.19478E-12     2508.76  1
 3.60099E-03   1.01015E-03   1.08114E-04   6.77737E-05   2.20119E-12     2537.71  1
 3.62099E-03   1.02700E-03   1.08152E-04   6.76698E-05   2.20483E-12     2544.51  1
 3.64099E-03   1.03544E-03   1.08153E-04   6.75481E-05   2.21440E-12     2546.48  1
 3.66099E-03   1.04215E-03   1.08128E-04   6.73741E-05   2.22354E-12     2519.64  1
 3.68099E-03   1.04987E-03   1.08087E-04   6.72087E-05   2.21925E-12     2501.44  1
 3.70099E-03   1.05442E-03   1.08042E-04   6.71037E-05   2.21754E-12     2614.48  1
 3.72099E-03   1.06022E-03   1.07984E-04   6.68797E-05   2.21240E-12     2556.13  1
 3.74099E-03   1.06797E-03   1.07908E-04   6.28636E-05   2.21335E-12     2533.95  1
 3.76099E-03   1.07716E-03   1.07896E-04   6.27436E-05   2.05046E-12     2503.83  0
 3.78099E-03   1.05347E-03   1.03079E-04   6.26786E-05   1.88390E-12     2162.78  0
 3.80099E-03   1.02882E-03   9.77417E-05   6.23231E-05   1.71410E-12     2026.53  0
 3.82099E-03   1.00532E-03   9.14648E-05   6.25718E-05   1.57262E-12     1943.37  0
 3.84099E-03   9.76931E-04   8.43901E-05   6.23254E-05   1.44334E-12     1881.42  0
 3.86099E-03   9.49091E-04   7.79998E-05   6.18824E-05   1.32399E-12     1831.21  0
 3.88099E-03   9.17219E-04   7.05602E-05   6.12719E-05   1.21228E-12     1790.05  0
 3.90099E-03   8.87511E-04   6.39123E-05   6.05269E-05   1.10652E-12     1754.85  0
 3.92099E-03   8.56240E-04   5.83901E-05   5.96780E-05   1.00626E-12     1725.31  0
 3.94099E-03   8.25733E-04   5.34407E-05   5.87570E-05   9.09999E-13     1700.11  0
 3.96099E-03   7.97925E-04   4.91252E-05   5.78157E-05   8.18042E-13     1678.80  0
 3.98099E-03   7.66656E-04   4.55656E-05   5.68983E-05   7.30085E-13     1661.05  0
 4.00099E-03   7.34885E-04   4.27589E-05   5.53975E-05   6.35589E-13     1646.28  0
 4.02099E-03   7.02673E-04   3.92048E-05   5.57015E-05   5.57524E-13     1635.05  0
 4.04099E-03   6.69771E-04   3.72094E-05   5.55357E-05   4.84993E-13     1627.39  0
 4.06099E-03   6.37692E-04   3.40542E-05   5.53764E-05   4.17822E-13     1623.38  0
 4.08099E-03   6.06988E-04   3.24640E-05   5.52163E-05   3.55804E-13     1622.38  0
 4.10099E-03   5.77688E-04   2.93351E-05   5.50476E-05   2.98560E-13     1621.30  0
 4.12099E-03   5.49421E-04   2.78398E-05   5.48650E-05   2.46395E-13     1619.83  0
 4.14099E-03   5.20321E-04   2.50710E-05   5.46630E-05   1.99033E-13     1617.96  0
 4.16100E-03   4.81370E-04   2.34503E-05   5.44384E-05   1.56885E-13     1615.68  0
 4.18100E-03   4.41861E-04   2.14419E-05   5.41859E-05   1.19718E-13     1612.96  0
 4.20100E-03   3.98254E-04   1.91986E-05   5.32942E-05   7.71885E-14     1609.70  0
 4.22100E-03   3.52926E-04   1.77875E-05   5.39854E-05   4.77149E-14     1605.80  0
 4.24100E-03   3.00421E-04   1.48417E-05   5.30960E-05   2.62053E-14     1600.96  0
 4.26100E-03   2.46419E-04   1.31082E-05   5.08898E-05   9.37649E-14     1595.21  1
 4.28100E-03   4.14600E-05   1.03879E-04   4.18568E-05   2.30973E-13     1864.33  1
 4.30100E-03   7.48314E-05   1.07957E-04   5.50993E-05   3.54220E-13     2457.21  1
 4.32100E-03   1.06535E-04   1.08230E-04   5.74188E-05   4.79180E-13     2540.20  1
 4.34100E-03   1.39061E-04   1.08237E-04   6.03907E-05   6.03283E-13     2565.71  1
 4.36100E-03   1.73575E-04   1.08281E-04   6.17787E-05   7.18566E-13     2577.05  1
 4.38100E-03   2.05502E-04   1.08390E-04   6.25019E-05   8.32965E-13     2591.53  1
 4.40100E-03   2.34451E-04   1.07889E-04   6.16921E-05   9.51653E-13     2510.34  1
 4.42100E-03   2.63498E-04   1.08094E-04   6.61940E-05   1.05416E-12     2479.21  1
 4.44100E-03   2.93260E-04   1.08131E-04   6.76898E-05   1.15262E-12     2458.56  1
 4.46100E-03   3.23751E-04   1.08114E-04   6.83274E-05   1.23889E-12     2460.20  1
 4.48100E-03   3.56001E-04   1.08078E-04   6.86462E-05   1.32090E-12     2509.93  1
 4.50100E-03   3.90421E-04   1.08121E-04   6.87169E-05   1.40344E-12     2499.77  1
 4.52100E-03   4.21802E-04   1.08184E-04   6.86445E-05   1.47811E-12     2489.78  1
 4.54100E-03   4.51862E-04   1.08215E-04   6.84460E-05   1.53957E-12     2471.64  1
 4.56100E-03   4.81845E-04   1.08218E-04   6.83247E-05   1.60227E-12     2477.07  1
 4.58100E-03   5.12278E-04   1.08209E-04   6.82044E-05   1.66178E-12     2459.76  1
 4.60100E-03   5.40476E-04   1.08105E-04   6.80881E-05   1.72230E-12     2474.64  1
 4.62100E-03   5.80169E-04   1.08242E-04   6.80244E-05   1.77822E-12     2490.07  1
 4.64100E-03   6.03797E-04   1.08272E-04   6.80403E-05   1.82138E-12     2491.91  1
 4.66100E-03   6.25033E-04   1.08273E-04   6.80663E-05   1.86530E-12     2543.89  1
 4.68100E-03   6.51146E-04   1.08269E-04   6.80661E-05   1.90825E-12     2478.27  1
 4.70100E-03   6.74335E-04   1.08249E-04   6.80834E-05   1.94805E-12     2481.13  1
 4.72100E-03   7.00558E-04   1.08212E-04   6.81893E-05   1.98538E-12     2507.71  1
