# Melt Pool Geometry History
# time(s)  length(m)  depth(m)  width(m)  volume(m3)  Tpeak(K)  laser_on
 2.10000E-05   0.00000E+00   0.00000E+00   0.00000E+00   7.40221E-14      293.00  1
 4.10000E-05   4.46395E-05   1.03797E-04   4.39171E-05   2.41636E-13     1925.47  1
 6.10000E-05   7.21533E-05   1.09793E-04   5.85417E-05   3.73075E-13     2844.00  1
 8.10000E-05   9.23912E-05   1.11968E-04   6.51514E-05   4.92787E-13     3247.23  1
 1.01000E-04   1.12980E-04   1.12690E-04   6.75480E-05   6.09321E-13     3492.79  1
 1.21000E-04   1.34359E-04   1.13055E-04   6.88718E-05   7.19918E-13     3547.92  1
 1.41000E-04   1.55745E-04   1.13160E-04   6.96488E-05   8.35442E-13     3566.39  1
 1.61000E-04   1.76228E-04   1.13206E-04   7.01685E-05   9.34733E-13     3599.57  1
 1.81000E-04   1.93211E-04   1.13325E-04   7.06051E-05   1.03696E-12     3626.06  1
 2.01000E-04   2.12679E-04   1.12043E-04   7.13623E-05   1.06454E-12     3523.30  0
 2.21000E-04   2.17157E-04   1.10544E-04   8.04541E-05   1.03992E-12     2998.90  0
 2.41000E-04   2.18503E-04   1.08249E-04   8.30532E-05   1.00137E-12     2679.23  0
 2.61000E-04   2.18855E-04   1.04780E-04   8.41785E-05   9.59564E-13     2462.00  0
 2.81000E-04   2.18839E-04   1.02261E-04   8.48881E-05   9.16855E-13     2307.91  0
 3.01000E-04   2.18675E-04   9.82982E-05   8.53850E-05   8.73388E-13     2191.93  0
 3.21000E-04   2.18453E-04   9.44186E-05   8.57173E-05   8.32641E-13     2101.75  0
 3.41000E-04   2.18115E-04   9.09668E-05   8.58933E-05   7.91980E-13     2029.06  0
 3.61000E-04   2.17722E-04   8.76620E-05   8.59037E-05   7.53554E-13     1967.49  0
 3.81000E-04   2.17270E-04   8.34190E-05   8.57417E-05   7.17711E-13     1914.52  0
 4.01000E-04   2.16712E-04   7.94064E-05   8.53986E-05   6.82440E-13     1868.34  0
 4.21000E-04   2.16096E-04   7.58040E-05   8.48773E-05   6.47758E-13     1828.00  0
 4.41000E-04   2.15447E-04   7.26362E-05   8.41882E-05   6.12841E-13     1792.73  0
 4.61000E-04   2.14854E-04   6.83918E-05   8.33386E-05   5.77873E-13     1761.70  0
 4.81000E-04   2.14403E-04   6.44271E-05   8.23675E-05   5.42431E-13     1734.90  0
 5.01000E-04   2.14013E-04   6.12709E-05   8.13042E-05   5.06233E-13     1711.41  0
 5.21000E-04   2.13808E-04   5.80792E-05   8.01888E-05   4.69766E-13     1690.93  0
 5.41000E-04   2.13684E-04   5.42983E-05   7.90796E-05   4.32793E-13     1673.41  0
 5.61000E-04   2.13539E-04   5.14839E-05   7.80234E-05   3.95925E-13     1658.38  0
 5.81000E-04   2.13372E-04   4.83337E-05   7.71072E-05   3.59370E-13     1646.08  0
 6.01000E-04   2.06357E-04   4.44714E-05   7.32869E-05   2.95644E-13     1635.76  0
 6.21000E-04   2.18264E-04   4.25052E-05   8.16799E-05   2.59817E-13     1628.49  0
 6.41000E-04   2.11256E-04   3.90357E-05   8.19857E-05   2.26159E-13     1623.89  0
 6.61000E-04   2.06999E-04   3.68054E-05   8.21837E-05   1.94655E-13     1622.58  0
 6.81000E-04   2.03239E-04   3.39038E-05   8.23030E-05   1.65163E-13     1621.68  0
 7.01000E-04   1.94971E-04   3.17281E-05   8.23599E-05   2.16807E-13     1620.42  1
 7.21000E-04   4.83650E-05   1.03377E-04   4.21060E-05   3.57426E-13     1832.36  1
 7.41000E-04   7.53117E-05   1.09704E-04   6.16508E-05   4.70552E-13     2796.00  1
 7.61000E-04   9.66471E-05   1.11834E-04   7.04557E-05   5.87763E-13     3165.38  1
 7.81000E-04   1.17328E-04   1.12810E-04   7.37167E-05   7.04308E-13     3350.26  1
 8.01000E-04   1.36678E-04   1.12807E-04   7.66770E-05   8.46625E-13     3367.15  1
 8.21000E-04   1.57413E-04   1.13332E-04   8.30820E-05   9.80163E-13     3415.73  1
 8.41000E-04   1.77629E-04   1.13785E-04   9.59426E-05   1.12495E-12     3452.85  1
 8.61000E-04   2.37297E-04   1.14532E-04   1.67342E-04   1.27649E-12     3475.27  1
 8.81000E-04   2.26979E-04   1.14996E-04   1.58850E-04   1.42952E-12     3487.68  1
 9.01000E-04   2.36979E-04   1.15285E-04   1.49644E-04   1.58455E-12     3488.72  1
 9.21000E-04   2.56474E-04   1.15431E-04   1.40017E-04   1.73900E-12     3490.38  1
 9.41000E-04   2.76066E-04   1.15435E-04   1.35609E-04   1.88871E-12     3498.11  1
 9.61000E-04   2.95841E-04   1.15318E-04   1.35025E-04   2.03240E-12     3503.53  1
 9.81000E-04   3.14825E-04   1.15104E-04   1.35291E-04   2.17508E-12     3501.31  1
 1.00100E-03   3.32169E-04   1.14770E-04   1.37731E-04   2.30945E-12     3469.59  1
 1.02100E-03   3.54206E-04   1.14253E-04   1.39309E-04   2.43720E-12     3457.29  1
 1.04100E-03   3.73963E-04   1.13933E-04   1.40383E-04   2.55906E-12     3434.95  1
 1.06100E-03   3.93443E-04   1.13681E-04   1.41002E-04   2.67509E-12     3416.18  1
 1.08100E-03   4.13197E-04   1.13421E-04   1.41338E-04   2.63259E-12     3398.66  0
 1.10100E-03   4.15469E-04   1.12800E-04   1.41451E-04   2.57675E-12     2897.20  0
 1.12100E-03   4.16209E-04   1.09846E-04   1.41420E-04   2.50747E-12     2622.51  0
 1.14100E-03   4.16541E-04   1.08118E-04   1.41260E-04   2.43371E-12     2451.31  0
 1.16100E-03   4.16143E-04   1.04753E-04   1.41080E-04   2.35100E-12     2328.35  0
 1.18100E-03   4.16151E-04   1.02698E-04   1.40867E-04   2.26855E-12     2226.77  0
 1.20100E-03   4.15560E-04   9.88122E-05   1.40429E-04   2.15995E-12     2136.97  0
 1.22100E-03   4.16420E-04   9.60819E-05   1.43241E-04   2.07179E-12     2053.72  0
 1.24100E-03   4.15919E-04   9.32502E-05   1.41553E-04   1.97851E-12     1982.51  0
 1.26100E-03   4.15362E-04   8.99378E-05   1.39890E-04   1.88446E-12     1920.31  0
 1.28100E-03   4.14756E-04   8.77226E-05   1.39280E-04   1.79055E-12     1869.23  0
 1.30100E-03   4.14076E-04   8.41516E-05   1.38789E-04   1.69741E-12     1826.81  0
 1.32100E-03   4.13277E-04   8.17757E-05   1.38271E-04   1.60513E-12     1790.70  0
 1.34100E-03   4.06018E-04   7.86498E-05   1.37595E-04   1.51437E-12     1759.99  0
 1.36100E-03   3.99327E-04   7.58340E-05   1.36853E-04   1.42509E-12     1733.91  0
 1.38100E-03   3.92935E-04   7.33166E-05   1.36070E-04   1.33790E-12     1712.10  0
 1.40100E-03   3.84647E-04   7.02687E-05   1.35028E-04   1.25258E-12     1693.32  0
 1.42100E-03   3.78004E-04   6.80388E-05   1.33746E-04   1.16948E-12     1677.37  0
 1.44100E-03   3.73004E-04   6.48865E-05   1.31545E-04   1.08828E-12     1664.00  0
 1.46100E-03   3.65704E-04   6.29093E-05   1.27802E-04   1.00968E-12     1652.77  0
 1.48100E-03   3.62093E-04   5.98872E-05   1.26470E-04   9.33299E-13     1643.51  0
 1.50100E-03   3.54758E-04   5.80596E-05   1.25499E-04   8.60352E-13     1636.06  0
 1.52100E-03   3.51390E-04   5.52558E-05   1.24439E-04   7.90234E-13     1630.42  0
 1.54100E-03   3.44388E-04   5.33537E-05   1.24003E-04   7.23469E-13     1626.31  0
 1.56100E-03   3.41343E-04   5.09045E-05   1.23698E-04   6.59502E-13     1623.76  0
 1.58100E-03   3.34267E-04   4.87653E-05   1.23387E-04   6.75060E-13     1622.88  1
 1.60100E-03   3.95214E-05   1.00551E-04   3.98709E-05   7.70209E-13     1784.12  1
 1.62100E-03   7.17964E-05   1.09278E-04   6.04435E-05   8.42209E-13     2714.55  1
 1.64100E-03   9.55970E-05   1.11492E-04   6.66828E-05   9.16477E-13     3115.45  1
 1.66100E-03   1.17516E-04   1.12559E-04   6.88565E-05   1.00660E-12     3338.05  1
 1.68100E-03   1.38438E-04   1.13048E-04   7.80231E-05   1.11697E-12     3447.58  1
 1.70100E-03   1.58213E-04   1.13452E-04   8.20890E-05   1.22718E-12     3484.14  1
 1.72100E-03   1.78336E-04   1.13973E-04   8.54116E-05   1.34923E-12     3497.56  1
 1.74100E-03   4.07626E-04   1.14704E-04   1.99930E-04   1.48574E-12     3509.09  1
 1.76100E-03   4.01667E-04   1.15221E-04   1.98659E-04   1.63106E-12     3523.84  1
 1.78100E-03   3.97090E-04   1.15649E-04   1.98516E-04   1.78567E-12     3541.65  1
 1.80100E-03   3.89926E-04   1.15884E-04   1.92532E-04   1.94188E-12     3534.85  1
 1.82100E-03   3.85729E-04   1.16146E-04   1.85743E-04   2.09355E-12     3544.40  1
 1.84100E-03   3.82359E-04   1.16495E-04   1.81811E-04   2.24831E-12     3555.00  1
 1.86100E-03   3.74825E-04   1.16797E-04   1.80281E-04   2.40680E-12     3578.54  1
 1.88100E-03   3.67900E-04   1.16925E-04   1.77008E-04   2.57187E-12     3587.34  1
 1.90100E-03   3.63129E-04   1.16971E-04   1.78039E-04   2.73724E-12     3595.51  1
 1.92100E-03   3.77933E-04   1.17003E-04   1.78750E-04   2.90013E-12     3599.10  1
 1.94100E-03   3.97490E-04   1.17010E-04   1.79268E-04   3.05819E-12     3594.07  1
 1.96100E-03   4.16864E-04   1.16975E-04   1.79545E-04   3.21022E-12     3585.57  1
 1.98100E-03   4.36019E-04   1.16878E-04   1.79717E-04   3.35602E-12     3565.17  1
 2.00100E-03   4.52064E-04   1.16650E-04   1.79661E-04   3.48969E-12     3533.58  1
 2.02100E-03   4.76443E-04   1.16388E-04   1.79587E-04   3.61523E-12     3535.29  1
 2.04100E-03   4.95817E-04   1.16157E-04   1.79222E-04   3.73351E-12     3535.70  1
 2.06100E-03   5.15302E-04   1.15952E-04   1.78936E-04   3.83957E-12     3522.46  1
 2.08100E-03   5.34563E-04   1.15596E-04   1.78866E-04   3.93767E-12     3494.08  1
 2.10100E-03   5.53599E-04   1.15169E-04   1.78928E-04   4.02805E-12     3461.96  1
 2.12100E-03   5.72881E-04   1.14716E-04   1.78847E-04   4.11170E-12     3433.96  1
 2.14100E-03   5.92282E-04   1.14220E-04   1.78772E-04   4.18483E-12     3423.30  1
 2.16100E-03   6.11764E-04   1.13806E-04   1.77690E-04   4.09622E-12     3398.41  0
 2.18100E-03   6.11487E-04   1.13234E-04   1.76682E-04   3.99482E-12     2913.66  0
 2.20100E-03   6.06811E-04   1.10586E-04   1.73312E-04   3.86435E-12     2639.64  0
 2.22100E-03   6.01400E-04   1.08522E-04   1.75959E-04   3.74957E-12     2453.44  0
 2.24100E-03   5.95756E-04   1.05700E-04   1.76672E-04   3.61895E-12     2307.12  0
 2.26100E-03   5.90959E-04   1.03182E-04   1.76925E-04   3.48082E-12     2193.80  0
 2.28100E-03   5.85921E-04   9.98988E-05   1.76974E-04   3.34142E-12     2101.03  0
 2.30100E-03   5.80938E-04   9.78551E-05   1.76787E-04   3.20168E-12     2025.74  0
 2.32100E-03   5.75531E-04   9.44204E-05   1.76100E-04   3.06152E-12     1963.72  0
 2.34100E-03   5.70608E-04   9.25954E-05   1.75293E-04   2.92371E-12     1912.11  0
 2.36100E-03   5.65147E-04   8.90919E-05   1.73996E-04   2.78708E-12     1868.08  0
 2.38100E-03   5.60877E-04   8.71391E-05   1.70625E-04   2.65257E-12     1830.27  0
 2.40100E-03   5.51038E-04   8.34210E-05   1.67122E-04   2.45894E-12     1796.43  0
 2.42100E-03   5.53505E-04   8.10950E-05   1.69353E-04   2.31706E-12     1766.94  0
 2.44100E-03   5.49341E-04   7.86367E-05   1.70095E-04   2.17999E-12     1740.27  0
 2.46100E-03   5.41541E-04   7.63538E-05   1.70503E-04   2.04761E-12     1716.29  0
 2.48100E-03   5.38249E-04   7.38723E-05   1.66941E-04   1.91903E-12     1695.82  0
 2.50100E-03   5.30846E-04   7.19758E-05   1.65151E-04   1.79390E-12     1678.48  0
 2.52100E-03   5.27189E-04   6.92329E-05   1.64172E-04   1.67341E-12     1664.15  0
 2.54100E-03   5.19633E-04   6.76651E-05   1.63187E-04   1.55689E-12     1652.50  0
 2.56100E-03   5.15410E-04   6.47586E-05   1.62079E-04   1.44503E-12     1643.11  0
 2.58100E-03   5.07506E-04   6.31489E-05   1.59755E-04   1.33757E-12     1635.76  0
 2.60100E-03   4.99077E-04   6.02922E-05   1.54243E-04   1.21105E-12     1629.96  0
 2.62100E-03   4.92400E-04   5.86075E-05   1.54065E-04   1.11053E-12     1626.04  0
 2.64100E-03   4.78836E-04   5.66214E-05   1.52887E-04   1.01687E-12     1623.66  0
 2.66100E-03   4.72180E-04   5.42832E-05   1.50382E-04   1.00690E-12     1622.88  1
 2.68100E-03   4.85776E-05   1.02711E-04   4.66554E-05   1.09080E-12     1810.39  1
 2.70100E-03   7.49369E-05   1.09424E-04   6.05218E-05   1.14111E-12     2751.93  1
 2.72100E-03   9.62109E-05   1.11582E-04   6.66067E-05   1.19439E-12     3145.93  1
 2.74100E-03   1.17457E-04   1.12597E-04   6.87803E-05   1.26099E-12     3391.49  1
 2.76100E-03   1.38214E-04   1.13065E-04   7.44053E-05   1.35969E-12     3485.34  1
 2.78100E-03   1.58256E-04   1.13508E-04   8.46876E-05   1.45754E-12     3506.14  1
 2.80100E-03   1.77816E-04   1.14061E-04   9.49575E-05   1.56906E-12     3481.57  1
 2.82100E-03   5.49265E-04   1.14638E-04   2.11502E-04   1.69026E-12     3492.33  1
 2.84100E-03   5.44595E-04   1.15428E-04   2.10044E-04   1.82504E-12     3521.23  1
 2.86100E-03   5.36987E-04   1.15957E-04   2.08909E-04   1.97050E-12     3572.46  1
 2.88100E-03   5.30973E-04   1.16350E-04   2.05979E-04   2.12330E-12     3602.29  1
 2.90100E-03   5.25347E-04   1.16674E-04   2.03628E-04   2.27715E-12     3627.56  1
 2.92100E-03   5.17741E-04   1.16956E-04   2.02680E-04   2.43070E-12     3654.30  1
 2.94100E-03   5.12172E-04   1.17188E-04   2.01834E-04   2.58252E-12     3676.58  1
 2.96100E-03   5.05305E-04   1.17392E-04   2.00749E-04   2.74206E-12     3687.71  1
 2.98100E-03   4.97234E-04   1.17571E-04   2.00160E-04   2.90210E-12     3691.88  1
 3.00100E-03   4.88884E-04   1.17582E-04   1.98303E-04   3.06575E-12     3655.07  1
 3.02100E-03   4.83643E-04   1.17645E-04   1.97465E-04   3.22707E-12     3660.51  1
 3.04100E-03   4.74892E-04   1.17680E-04   1.96467E-04   3.39014E-12     3688.21  1
 3.06100E-03   4.65856E-04   1.17776E-04   1.93555E-04   3.55385E-12     3704.99  1
 3.08100E-03   4.57895E-04   1.17831E-04   1.90207E-04   3.71092E-12     3698.73  1
 3.10100E-03   4.77467E-04   1.17840E-04   1.90055E-04   3.86678E-12     3683.52  1
 3.12100E-03   4.97060E-04   1.17832E-04   1.90449E-04   4.01865E-12     3667.56  1
 3.14100E-03   5.16723E-04   1.17807E-04   1.90840E-04   4.16180E-12     3654.80  1
 3.16100E-03   5.36339E-04   1.17766E-04   1.91078E-04   4.29913E-12     3644.22  1
 3.18100E-03   5.55883E-04   1.17708E-04   1.91368E-04   4.42892E-12     3632.90  1
 3.20100E-03   5.71404E-04   1.17622E-04   1.91438E-04   4.54852E-12     3590.27  1
 3.22100E-03   5.99374E-04   1.17485E-04   1.91570E-04   4.66222E-12     3590.75  1
 3.24100E-03   6.10391E-04   1.17259E-04   1.91549E-04   4.76860E-12     3613.79  1
 3.26100E-03   6.27442E-04   1.17142E-04   1.91497E-04   4.86819E-12     3618.77  1
 3.28100E-03   6.42211E-04   1.16930E-04   1.91505E-04   4.95708E-12     3593.87  1
 3.30100E-03   6.57014E-04   1.16635E-04   1.91538E-04   5.03894E-12     3568.75  1
 3.32100E-03   6.73383E-04   1.16297E-04   1.91526E-04   5.11159E-12     3548.88  1
 3.34100E-03   6.85979E-04   1.15913E-04   1.91391E-04   5.17684E-12     3525.46  1
 3.36100E-03   7.02447E-04   1.15492E-04   1.91180E-04   5.23452E-12     3508.89  1
 3.38100E-03   7.15501E-04   1.15093E-04   1.90970E-04   5.28220E-12     3499.56  1
 3.40100E-03   7.28413E-04   1.14661E-04   1.90631E-04   5.31702E-12     3452.45  1
 3.42100E-03   7.46193E-04   1.14080E-04   1.90095E-04   5.34958E-12     3448.80  1
 3.44100E-03   7.58480E-04   1.13785E-04   1.88976E-04   5.22576E-12     3440.52  0
 3.46100E-03   7.57543E-04   1.13218E-04   1.86854E-04   5.08713E-12     2928.32  0
 3.48100E-03   7.51992E-04   1.11074E-04   1.84757E-04   4.93696E-12     2652.48  0
 3.50099E-03   7.48923E-04   1.08655E-04   1.83932E-04   4.78090E-12     2477.99  0
 3.52099E-03   7.45581E-04   1.06105E-04   1.83288E-04   4.61962E-12     2345.37  0
 3.54099E-03   7.39817E-04   1.03394E-04   1.82573E-04   4.45615E-12     2238.48  0
 3.56099E-03   7.37450E-04   1.00335E-04   1.81851E-04   4.29283E-12     2145.83  0
 3.58099E-03   7.31106E-04   9.80428E-05   1.81133E-04   4.12904E-12     2065.66  0
 3.60099E-03   7.26628E-04   9.44337E-05   1.78646E-04   3.95511E-12     1993.83  0
 3.62099E-03   7.23755E-04   9.25348E-05   1.78110E-04   3.79295E-12     1931.79  0
 3.64099E-03   7.16244E-04   8.89697E-05   1.77112E-04   3.62806E-12     1878.17  0
 3.66099E-03   7.12751E-04   8.65194E-05   1.76208E-04   3.46460E-12     1832.47  0
 3.68099E-03   7.07126E-04   8.36374E-05   1.74868E-04   3.30280E-12     1794.35  0
 3.70099E-03   7.01516E-04   8.09281E-05   1.71764E-04   3.14174E-12     1762.03  0
 3.72099E-03   6.98416E-04   7.84536E-05   1.69416E-04   2.98336E-12     1735.35  0
 3.74099E-03   6.90462E-04   7.57187E-05   1.68073E-04   2.82676E-12     1713.13  0
 3.76099E-03   6.87485E-04   7.34636E-05   1.66936E-04   2.67287E-12     1694.71  0
 3.78099E-03   6.80007E-04   7.09635E-05   1.65704E-04   2.52192E-12     1678.97  0
 3.80099E-03   6.74286E-04   6.86271E-05   1.62654E-04   2.31411E-12     1665.64  0
 3.82099E-03   6.71114E-04   6.67248E-05   1.67303E-04   2.15744E-12     1654.46  0
 3.84099E-03   6.63231E-04   6.43028E-05   1.64746E-04   2.00868E-12     1644.95  0
 3.86099E-03   6.59708E-04   6.28455E-05   1.63668E-04   1.86708E-12     1637.23  0
 3.88099E-03   6.51555E-04   6.02840E-05   1.62647E-04   1.73170E-12     1631.42  0
 3.90099E-03   6.47992E-04   5.87184E-05   1.61375E-04   1.60286E-12     1627.17  0
 3.92099E-03   6.39912E-04   5.73084E-05   1.58529E-04   1.48005E-12     1624.35  0
 3.94099E-03   6.36250E-04   5.47717E-05   1.55737E-04   1.44401E-12     1623.02  1
 3.96099E-03   4.60729E-05   1.03755E-04   4.32443E-05   1.49604E-12     1847.07  1
 3.98099E-03   7.19897E-05   1.09894E-04   6.28973E-05   1.53502E-12     2810.00  1
 4.00099E-03   9.45797E-05   1.11426E-04   7.05915E-05   1.56673E-12     3075.46  1
 4.02099E-03   1.16301E-04   1.12716E-04   7.90925E-05   1.61753E-12     3230.79  1
 4.04099E-03   1.37374E-04   1.13286E-04   8.31953E-05   1.67572E-12     3349.23  1
 4.06099E-03   1.57879E-04   1.13884E-04   9.45771E-05   1.75270E-12     3410.29  1
 4.08099E-03   6.85580E-04   1.14745E-04   2.27431E-04   1.85069E-12     3449.38  1
 4.10099E-03   6.78023E-04   1.15406E-04   2.23361E-04   1.96621E-12     3493.67  1
 4.12099E-03   6.71721E-04   1.15930E-04   2.21783E-04   2.09169E-12     3528.00  1
 4.14099E-03   6.65108E-04   1.16365E-04   2.20867E-04   2.22364E-12     3558.13  1
 4.16100E-03   6.56809E-04   1.16729E-04   2.19852E-04   2.35883E-12     3584.59  1
 4.18100E-03   6.49103E-04   1.17040E-04   2.17455E-04   2.49740E-12     3606.30  1
 4.20100E-03   6.40907E-04   1.17144E-04   2.14060E-04   2.64589E-12     3586.76  1
 4.22100E-03   6.35483E-04   1.17319E-04   2.14639E-04   2.78247E-12     3611.71  1
 4.24100E-03   6.28411E-04   1.17615E-04   2.12405E-04   2.92278E-12     3661.13  1
 4.26100E-03   6.21559E-04   1.17819E-04   2.11336E-04   3.06332E-12     3681.32  1
 4.28100E-03   6.12385E-04   1.17981E-04   2.10423E-04   3.20720E-12     3675.36  1
 4.30100E-03   6.03089E-04   1.18092E-04   2.08712E-04   3.35369E-12     3674.50  1
 4.32100E-03   5.93528E-04   1.18172E-04   2.04544E-04   3.50236E-12     3673.46  1
 4.34100E-03   5.83576E-04   1.18248E-04   2.03076E-04   3.66564E-12     3671.01  1
 4.36100E-03   5.73200E-04   1.18325E-04   2.04529E-04   3.82383E-12     3666.61  1
 4.38100E-03   5.62463E-04   1.18390E-04   2.03322E-04   3.97951E-12     3662.42  1
 4.40100E-03   5.43760E-04   1.17916E-04   1.98348E-04   4.15092E-12     3572.33  1
 4.42100E-03   5.38614E-04   1.17907E-04   1.98914E-04   4.29383E-12     3596.75  1
 4.44100E-03   5.38423E-04   1.17880E-04   1.97540E-04   4.43569E-12     3655.85  1
 4.46100E-03   5.55082E-04   1.18067E-04   1.98406E-04   4.57455E-12     3682.74  1
 4.48100E-03   5.70099E-04   1.18170E-04   1.98772E-04   4.71124E-12     3661.69  1
 4.50100E-03   5.87218E-04   1.18184E-04   1.99228E-04   4.84249E-12     3656.54  1
 4.52100E-03   6.00690E-04   1.18161E-04   1.99478E-04   4.96825E-12     3649.54  1
 4.54100E-03   6.17398E-04   1.18130E-04   1.99649E-04   5.09068E-12     3645.73  1
 4.56100E-03   6.30914E-04   1.18093E-04   1.99825E-04   5.20798E-12     3637.68  1
 4.58100E-03   6.47151E-04   1.18045E-04   1.99958E-04   5.31909E-12     3632.73  1
 4.60100E-03   6.60282E-04   1.17799E-04   1.99382E-04   5.42810E-12     3529.81  1
 4.62100E-03   6.74990E-04   1.17728E-04   2.02284E-04   5.52191E-12     3545.02  1
 4.64100E-03   6.89395E-04   1.17631E-04   2.00974E-04   5.61286E-12     3596.54  1
 4.66100E-03   7.04840E-04   1.17651E-04   2.00880E-04   5.69833E-12     3592.12  1
 4.68100E-03   7.19031E-04   1.17594E-04   2.00929E-04   5.77611E-12     3581.95  1
 4.70100E-03   7.36081E-04   1.17437E-04   2.00924E-04   5.84562E-12     3567.17  1
 4.72100E-03   7.48944E-04   1.17179E-04   2.00854E-04   5.90653E-12     3553.90  1
