# Melt Pool Geometry History
# time(s)  length(m)  depth(m)  width(m)  volume(m3)  Tpeak(K)  laser_on
 2.10000E-05   0.00000E+00   0.00000E+00   0.00000E+00   7.71602E-14      293.00  1
 4.10000E-05   4.25214E-05   1.03539E-04   4.45090E-05   2.32521E-13     1921.70  1
 6.10000E-05   7.26006E-05   1.09660E-04   5.65664E-05   3.76662E-13     2780.28  1
 8.10000E-05   9.51422E-05   1.11544E-04   6.32646E-05   5.05344E-13     3146.69  1
 1.01000E-04   1.17055E-04   1.12164E-04   6.52954E-05   6.27069E-13     3334.23  1
 1.21000E-04   1.38845E-04   1.12555E-04   6.65946E-05   7.45467E-13     3420.98  1
 1.41000E-04   1.60899E-04   1.12636E-04   6.73407E-05   8.59689E-13     3445.06  1
 1.61000E-04   1.82753E-04   1.12664E-04   6.77183E-05   9.71362E-13     3448.43  1
 1.81000E-04   2.04571E-04   1.12672E-04   6.80700E-05   1.07792E-12     3447.33  1
 2.01000E-04   2.23252E-04   1.11291E-04   6.83362E-05   1.19721E-12     3302.52  1
 2.21000E-04   2.45950E-04   1.11233E-04   7.86727E-05   1.32135E-12     3222.95  1
 2.41000E-04   2.67824E-04   1.11702E-04   8.16468E-05   1.44181E-12     3219.80  1
 2.61000E-04   2.88165E-04   1.11805E-04   8.30617E-05   1.55156E-12     3236.11  1
 2.81000E-04   3.09207E-04   1.11846E-04   8.40767E-05   1.65376E-12     3208.90  1
 3.01000E-04   3.30183E-04   1.11855E-04   8.49135E-05   1.60570E-12     3224.58  0
 3.21000E-04   3.30775E-04   1.09288E-04   8.56397E-05   1.54333E-12     2770.16  0
 3.41000E-04   3.30765E-04   1.07551E-04   8.62423E-05   1.47662E-12     2508.25  0
 3.61000E-04   3.30603E-04   1.03372E-04   8.67290E-05   1.41045E-12     2341.14  0
 3.81000E-04   3.30350E-04   9.92937E-05   8.70991E-05   1.34491E-12     2221.94  0
 4.01000E-04   3.27664E-04   9.54585E-05   8.63656E-05   1.29109E-12     2127.80  0
 4.21000E-04   3.31075E-04   9.21454E-05   8.71588E-05   1.23750E-12     2038.83  0
 4.41000E-04   3.29464E-04   8.80077E-05   8.84809E-05   1.17739E-12     1961.80  0
 4.61000E-04   3.28335E-04   8.36871E-05   8.87939E-05   1.11673E-12     1897.85  0
 4.81000E-04   3.27381E-04   7.94977E-05   8.87521E-05   1.05727E-12     1845.35  0
 5.01000E-04   3.26512E-04   7.58831E-05   8.85119E-05   9.98342E-13     1803.01  0
 5.21000E-04   3.25696E-04   7.26478E-05   8.81404E-05   9.40320E-13     1768.09  0
 5.41000E-04   3.24937E-04   6.83852E-05   8.76675E-05   8.82642E-13     1739.30  0
 5.61000E-04   3.24282E-04   6.45926E-05   8.71221E-05   8.25074E-13     1715.30  0
 5.81000E-04   3.23805E-04   6.16045E-05   8.65282E-05   7.67911E-13     1694.68  0
 6.01000E-04   3.17099E-04   5.77766E-05   8.40955E-05   6.67171E-13     1676.97  0
 6.21000E-04   3.21629E-04   5.42594E-05   8.77840E-05   6.09842E-13     1661.93  0
 6.41000E-04   3.11982E-04   5.15724E-05   8.68977E-05   5.55144E-13     1649.15  0
 6.61000E-04   3.04110E-04   4.85828E-05   8.62041E-05   5.02457E-13     1638.88  0
 6.81000E-04   2.95151E-04   4.57125E-05   8.57722E-05   4.51839E-13     1631.33  0
 7.01000E-04   2.86910E-04   4.33279E-05   8.55008E-05   4.03790E-13     1626.02  0
 7.21000E-04   2.81729E-04   4.04060E-05   8.52731E-05   3.58305E-13     1623.19  0
 7.41000E-04   2.74262E-04   3.83293E-05   8.50652E-05   3.15236E-13     1622.53  0
 7.61000E-04   2.67580E-04   3.56471E-05   8.48655E-05   2.74383E-13     1621.80  0
 7.81000E-04   2.62449E-04   3.35896E-05   8.46669E-05   2.36120E-13     1620.84  0
 8.01000E-04   2.52992E-04   3.11221E-05   8.38605E-05   2.66326E-13     1619.62  1
 8.21000E-04   4.17910E-05   1.02863E-04   4.49843E-05   3.99392E-13     1820.76  1
 8.41000E-04   7.19418E-05   1.08876E-04   5.97648E-05   4.93886E-13     2629.54  1
 8.61000E-04   9.76378E-05   1.10536E-04   6.54499E-05   5.89353E-13     3038.31  1
 8.81000E-04   1.18737E-04   1.11469E-04   6.74247E-05   6.90091E-13     3188.92  1
 9.01000E-04   1.39162E-04   1.11746E-04   6.85529E-05   7.86418E-13     3275.97  1
 9.21000E-04   1.60775E-04   1.11872E-04   6.96756E-05   9.01474E-13     3266.24  1
 9.41000E-04   1.82398E-04   1.11945E-04   7.81374E-05   1.01363E-12     3276.24  1
 9.61000E-04   2.03697E-04   1.11987E-04   8.06678E-05   1.13037E-12     3298.05  1
 9.81000E-04   2.25186E-04   1.12033E-04   8.19360E-05   1.24766E-12     3334.21  1
 1.00100E-03   2.49295E-04   1.12087E-04   8.28765E-05   1.36278E-12     3343.78  1
 1.02100E-03   2.69645E-04   1.12158E-04   8.36496E-05   1.47399E-12     3345.88  1
 1.04100E-03   2.90185E-04   1.12293E-04   8.42622E-05   1.59105E-12     3363.38  1
 1.06100E-03   3.10109E-04   1.12393E-04   8.48417E-05   1.70147E-12     3359.34  1
 1.08100E-03   3.30871E-04   1.12476E-04   8.54332E-05   1.80746E-12     3308.62  1
 1.10100E-03   3.51708E-04   1.12525E-04   8.59246E-05   1.91305E-12     3292.71  1
 1.12100E-03   3.72614E-04   1.12549E-04   8.63209E-05   2.01439E-12     3310.27  1
 1.14100E-03   3.93826E-04   1.12563E-04   8.66578E-05   2.11149E-12     3344.93  1
 1.16100E-03   4.17878E-04   1.12564E-04   8.69782E-05   2.20449E-12     3355.89  1
 1.18100E-03   4.37576E-04   1.12545E-04   8.73833E-05   2.29815E-12     3351.24  1
 1.20100E-03   4.56466E-04   1.12485E-04   8.76985E-05   2.38264E-12     3348.03  1
 1.22100E-03   4.83140E-04   1.12377E-04   8.80519E-05   2.46253E-12     3331.89  1
 1.24100E-03   5.04214E-04   1.12437E-04   8.83956E-05   2.54207E-12     3321.79  1
 1.26100E-03   5.24767E-04   1.12341E-04   8.87070E-05   2.61620E-12     3304.30  1
 1.28100E-03   5.45937E-04   1.12234E-04   8.89568E-05   2.69476E-12     3273.21  1
 1.30100E-03   5.67071E-04   1.12158E-04   9.05612E-05   2.76677E-12     3272.58  1
 1.32100E-03   5.88114E-04   1.12071E-04   9.17380E-05   2.83673E-12     3292.66  1
 1.34100E-03   6.06516E-04   1.11980E-04   9.23460E-05   2.90485E-12     3310.00  1
 1.36100E-03   6.27753E-04   1.11898E-04   9.27194E-05   2.96639E-12     3334.88  1
 1.38100E-03   6.45686E-04   1.11839E-04   9.30218E-05   3.02486E-12     3328.34  1
 1.40100E-03   6.61849E-04   1.11782E-04   9.20036E-05   2.97981E-12     3335.20  0
 1.42100E-03   6.58726E-04   1.09345E-04   9.51066E-05   2.87340E-12     2828.97  0
 1.44100E-03   6.56558E-04   1.07653E-04   9.68536E-05   2.75357E-12     2536.58  0
 1.46100E-03   6.51083E-04   1.03488E-04   9.78280E-05   2.63120E-12     2342.24  0
 1.48100E-03   6.47438E-04   9.96906E-05   9.83889E-05   2.50741E-12     2205.31  0
 1.50100E-03   6.42070E-04   9.62461E-05   9.86495E-05   2.38721E-12     2099.73  0
 1.52100E-03   6.37253E-04   9.27441E-05   9.87330E-05   2.26959E-12     2018.45  0
 1.54100E-03   6.31075E-04   8.84387E-05   9.87031E-05   2.15439E-12     1952.71  0
 1.56100E-03   6.26130E-04   8.43065E-05   9.85986E-05   2.04409E-12     1899.86  0
 1.58100E-03   6.18670E-04   8.05780E-05   9.83798E-05   1.93756E-12     1855.70  0
 1.60100E-03   6.12393E-04   7.58453E-05   9.62032E-05   1.77496E-12     1817.99  0
 1.62100E-03   6.04926E-04   7.27561E-05   1.02236E-04   1.66398E-12     1782.29  0
 1.64100E-03   5.96480E-04   6.87259E-05   1.02938E-04   1.55279E-12     1749.53  0
 1.66100E-03   5.90170E-04   6.52642E-05   1.03179E-04   1.44347E-12     1720.26  0
 1.68100E-03   5.82715E-04   6.27836E-05   1.03237E-04   1.33718E-12     1695.44  0
 1.70100E-03   5.73853E-04   5.90683E-05   1.03220E-04   1.23324E-12     1675.02  0
 1.72100E-03   5.65359E-04   5.66213E-05   1.03193E-04   1.13301E-12     1658.61  0
 1.74100E-03   5.57232E-04   5.35854E-05   1.03284E-04   1.03650E-12     1645.75  0
 1.76100E-03   5.49934E-04   5.08496E-05   1.03362E-04   9.44145E-13     1636.03  0
 1.78100E-03   5.41668E-04   4.83921E-05   1.03418E-04   8.56272E-13     1629.15  0
 1.80100E-03   5.30518E-04   4.54539E-05   9.92616E-05   7.32583E-13     1624.59  0
 1.82100E-03   5.23105E-04   4.33496E-05   1.05448E-04   6.47298E-13     1622.88  0
 1.84100E-03   5.12806E-04   4.06873E-05   1.06343E-04   5.69830E-13     1622.33  0
 1.86100E-03   4.96122E-04   3.85635E-05   1.06963E-04   4.98797E-13     1621.55  0
 1.88100E-03   4.78619E-04   3.63190E-05   1.07197E-04   4.33161E-13     1620.56  0
 1.90100E-03   4.62640E-04   3.40068E-05   1.07062E-04   4.52930E-13     1619.35  1
 1.92100E-03   4.17145E-05   1.03686E-04   4.20176E-05   5.47853E-13     1865.34  1
 1.94100E-03   7.25546E-05   1.09239E-04   6.17197E-05   6.38770E-13     2697.03  1
 1.96100E-03   9.50327E-05   1.10924E-04   6.91242E-05   7.26809E-13     3062.82  1
 1.98100E-03   1.18208E-04   1.11764E-04   7.21379E-05   8.07744E-13     3175.57  1
 2.00100E-03   1.39435E-04   1.11369E-04   7.46303E-05   9.13079E-13     3116.57  1
 2.02100E-03   1.59960E-04   1.11664E-04   7.95876E-05   1.00956E-12     3155.45  1
 2.04100E-03   1.81015E-04   1.11933E-04   8.16274E-05   1.10319E-12     3164.12  1
 2.06100E-03   2.02080E-04   1.12055E-04   8.27122E-05   1.20243E-12     3199.41  1
 2.08100E-03   2.23200E-04   1.12133E-04   8.35524E-05   1.30030E-12     3236.36  1
 2.10100E-03   2.44465E-04   1.12217E-04   8.42923E-05   1.40252E-12     3268.71  1
 2.12100E-03   2.67504E-04   1.12305E-04   8.49525E-05   1.50457E-12     3268.72  1
 2.14100E-03   2.88603E-04   1.12384E-04   8.54938E-05   1.61488E-12     3251.31  1
 2.16100E-03   3.08801E-04   1.12473E-04   8.59554E-05   1.72197E-12     3272.03  1
 2.18100E-03   3.29788E-04   1.12550E-04   8.63674E-05   1.82635E-12     3232.78  1
 2.20100E-03   3.50747E-04   1.12578E-04   8.67081E-05   1.93084E-12     3246.99  1
 2.22100E-03   3.74060E-04   1.12561E-04   8.70753E-05   2.02818E-12     3256.34  1
 2.24100E-03   3.95392E-04   1.12676E-04   8.74264E-05   2.12520E-12     3244.89  1
 2.26100E-03   4.16464E-04   1.12724E-04   8.77696E-05   2.21978E-12     3260.50  1
 2.28100E-03   4.37603E-04   1.12736E-04   8.81219E-05   2.31120E-12     3247.34  1
 2.30100E-03   4.58815E-04   1.12771E-04   8.84382E-05   2.40317E-12     3274.06  1
 2.32100E-03   4.80020E-04   1.12803E-04   8.87397E-05   2.48872E-12     3303.32  1
 2.34100E-03   5.01500E-04   1.12834E-04   8.90124E-05   2.57469E-12     3333.43  1
 2.36100E-03   5.22195E-04   1.12854E-04   9.05089E-05   2.66484E-12     3350.40  1
 2.38100E-03   5.45953E-04   1.12867E-04   9.16683E-05   2.75332E-12     3338.97  1
 2.40100E-03   5.64267E-04   1.12844E-04   9.22519E-05   2.83389E-12     3309.12  1
 2.42100E-03   5.88013E-04   1.12828E-04   9.26473E-05   2.91421E-12     3290.21  1
 2.44100E-03   6.07445E-04   1.12922E-04   9.29579E-05   2.99226E-12     3294.65  1
 2.46100E-03   6.26627E-04   1.12924E-04   9.32782E-05   3.06718E-12     3299.08  1
 2.48100E-03   6.41847E-04   1.12896E-04   9.35881E-05   3.14014E-12     3286.16  1
 2.50100E-03   6.59170E-04   1.12875E-04   9.38996E-05   3.21067E-12     3306.40  1
 2.52100E-03   6.74151E-04   1.12868E-04   9.41615E-05   3.27583E-12     3332.99  1
 2.54100E-03   6.91600E-04   1.12851E-04   9.43682E-05   3.33549E-12     3358.64  1
 2.56100E-03   7.06221E-04   1.12816E-04   9.45812E-05   3.39695E-12     3369.47  1
 2.58100E-03   7.25791E-04   1.12771E-04   9.47673E-05   3.45603E-12     3350.69  1
 2.60100E-03   7.39478E-04   1.12676E-04   9.49124E-05   3.51288E-12     3294.97  1
 2.62100E-03   7.56721E-04   1.12581E-04   9.51017E-05   3.56303E-12     3295.39  1
 2.64100E-03   7.71974E-04   1.12609E-04   9.52916E-05   3.60740E-12     3344.67  1
 2.66100E-03   7.88511E-04   1.12538E-04   9.54460E-05   3.65118E-12     3350.13  1
 2.68100E-03   8.05999E-04   1.12410E-04   9.55962E-05   3.69143E-12     3327.76  1
 2.70100E-03   8.21655E-04   1.12263E-04   9.57323E-05   3.72944E-12     3294.44  1
 2.72100E-03   8.36992E-04   1.12157E-04   9.58038E-05   3.76280E-12     3289.66  1
 2.74100E-03   8.52237E-04   1.12106E-04   9.58734E-05   3.78957E-12     3260.17  1
 2.76100E-03   8.68847E-04   1.12045E-04   9.59355E-05   3.81668E-12     3282.58  1
 2.78100E-03   8.83483E-04   1.11968E-04   9.59773E-05   3.69288E-12     3309.14  0
 2.80100E-03   8.78162E-04   1.09419E-04   9.55776E-05   3.55874E-12     2838.21  0
 2.82100E-03   8.75967E-04   1.07748E-04   9.60712E-05   3.42122E-12     2559.54  0
 2.84100E-03   8.71449E-04   1.03626E-04   9.60297E-05   3.27999E-12     2373.07  0
 2.86100E-03   8.64971E-04   9.99901E-05   9.60339E-05   3.13814E-12     2243.07  0
 2.88100E-03   8.59728E-04   9.68653E-05   9.60085E-05   2.99991E-12     2146.69  0
 2.90100E-03   8.52675E-04   9.30897E-05   9.59043E-05   2.86385E-12     2072.40  0
 2.92100E-03   8.45439E-04   8.89286E-05   9.57217E-05   2.73014E-12     2009.93  0
 2.94100E-03   8.39553E-04   8.52246E-05   9.54610E-05   2.59955E-12     1955.85  0
 2.96100E-03   8.30528E-04   8.24762E-05   9.51224E-05   2.47269E-12     1908.00  0
 2.98100E-03   8.25725E-04   7.83349E-05   9.46991E-05   2.34793E-12     1866.14  0
 3.00100E-03   8.13329E-04   7.43952E-05   9.26938E-05   2.16966E-12     1828.29  0
 3.02100E-03   8.09876E-04   7.18186E-05   9.41940E-05   2.03694E-12     1791.08  0
 3.04100E-03   8.04021E-04   6.84393E-05   9.48737E-05   1.90444E-12     1756.46  0
 3.06100E-03   7.94250E-04   6.52514E-05   9.50758E-05   1.77355E-12     1726.72  0
 3.08100E-03   7.85865E-04   6.28868E-05   9.50794E-05   1.64576E-12     1701.73  0
 3.10100E-03   7.79978E-04   5.94758E-05   9.49823E-05   1.52101E-12     1681.19  0
 3.12100E-03   7.69528E-04   5.75242E-05   9.48324E-05   1.40051E-12     1664.39  0
 3.14100E-03   7.59104E-04   5.40906E-05   9.46908E-05   1.28404E-12     1650.95  0
 3.16100E-03   7.48421E-04   5.19351E-05   9.46864E-05   1.17245E-12     1640.36  0
 3.18100E-03   7.33564E-04   4.89700E-05   9.47171E-05   1.06554E-12     1632.33  0
 3.20100E-03   7.15276E-04   4.59521E-05   9.20519E-05   9.13914E-13     1626.72  0
 3.22100E-03   6.99399E-04   4.36341E-05   9.97478E-05   8.10205E-13     1623.47  0
 3.24100E-03   6.75208E-04   4.13031E-05   1.00527E-04   7.16112E-13     1622.66  0
 3.26100E-03   6.56072E-04   3.89025E-05   1.01085E-04   6.29687E-13     1622.01  0
 3.28100E-03   6.26640E-04   3.71500E-05   1.01296E-04   6.23784E-13     1621.14  1
 3.30100E-03   4.72299E-05   1.02749E-04   4.39314E-05   7.11369E-13     1841.64  1
 3.32100E-03   7.25081E-05   1.09064E-04   5.99166E-05   7.67616E-13     2689.12  1
 3.34100E-03   9.38359E-05   1.10645E-04   6.55538E-05   8.31023E-13     3035.57  1
 3.36100E-03   1.15546E-04   1.11542E-04   6.74783E-05   8.97793E-13     3173.41  1
 3.38100E-03   1.38911E-04   1.11838E-04   7.25420E-05   9.71191E-13     3246.33  1
 3.40100E-03   1.59705E-04   1.11666E-04   7.46785E-05   1.05755E-12     3243.76  1
 3.42100E-03   1.82994E-04   1.11768E-04   7.96859E-05   1.14477E-12     3284.12  1
 3.44100E-03   2.05508E-04   1.12002E-04   8.16658E-05   1.23248E-12     3289.69  1
 3.46100E-03   2.31534E-04   1.12098E-04   8.27990E-05   1.31852E-12     3323.45  1
 3.48100E-03   2.52988E-04   1.12174E-04   8.36625E-05   1.40826E-12     3330.12  1
 3.50099E-03   2.74024E-04   1.12284E-04   8.44044E-05   1.50587E-12     3348.30  1
 3.52099E-03   2.95274E-04   1.12402E-04   8.50559E-05   1.60532E-12     3337.33  1
 3.54099E-03   3.16578E-04   1.12502E-04   8.56047E-05   1.70369E-12     3294.99  1
 3.56099E-03   3.37954E-04   1.12561E-04   8.61065E-05   1.80904E-12     3300.12  1
 3.58099E-03   3.59366E-04   1.12611E-04   8.65104E-05   1.91406E-12     3318.79  1
 3.60099E-03   3.79839E-04   1.12599E-04   8.68466E-05   2.01679E-12     3326.07  1
 3.62099E-03   4.05587E-04   1.12602E-04   8.71826E-05   2.11377E-12     3310.03  1
 3.64099E-03   4.26413E-04   1.12741E-04   8.74753E-05   2.21048E-12     3314.35  1
 3.66099E-03   4.47673E-04   1.12790E-04   8.77602E-05   2.30594E-12     3317.01  1
 3.68099E-03   4.69149E-04   1.12818E-04   8.80263E-05   2.39581E-12     3330.63  1
 3.70099E-03   4.94122E-04   1.12843E-04   8.82904E-05   2.48215E-12     3358.65  1
 3.72099E-03   5.13862E-04   1.12861E-04   8.85323E-05   2.56932E-12     3364.09  1
 3.74099E-03   5.34584E-04   1.12883E-04   8.87903E-05   2.66224E-12     3376.98  1
 3.76099E-03   5.54889E-04   1.12896E-04   9.04081E-05   2.74935E-12     3361.66  1
 3.78099E-03   5.75953E-04   1.12909E-04   9.15361E-05   2.83493E-12     3322.41  1
 3.80099E-03   5.91609E-04   1.12929E-04   9.21920E-05   2.92261E-12     3315.50  1
 3.82099E-03   6.08452E-04   1.12898E-04   9.26819E-05   3.00261E-12     3318.60  1
 3.84099E-03   6.25149E-04   1.12996E-04   9.31066E-05   3.08038E-12     3318.45  1
 3.86099E-03   6.40104E-04   1.13027E-04   9.34624E-05   3.15898E-12     3334.93  1
 3.88099E-03   6.57655E-04   1.13022E-04   9.37583E-05   3.23722E-12     3310.33  1
 3.90099E-03   6.73190E-04   1.13030E-04   9.40146E-05   3.30724E-12     3313.71  1
 3.92099E-03   6.91139E-04   1.13049E-04   9.42394E-05   3.37350E-12     3331.35  1
 3.94099E-03   7.14575E-04   1.13066E-04   9.44472E-05   3.43714E-12     3363.84  1
 3.96099E-03   7.33337E-04   1.13086E-04   9.46488E-05   3.50070E-12     3372.27  1
 3.98099E-03   7.45846E-04   1.13094E-04   9.48080E-05   3.56395E-12     3388.69  1
 4.00099E-03   7.58875E-04   1.13088E-04   9.49167E-05   3.62271E-12     3359.54  1
 4.02099E-03   7.76307E-04   1.13026E-04   9.50916E-05   3.68075E-12     3320.38  1
 4.04099E-03   7.94361E-04   1.13115E-04   9.52547E-05   3.73477E-12     3308.82  1
 4.06099E-03   8.08400E-04   1.13150E-04   9.54390E-05   3.78449E-12     3302.48  1
 4.08099E-03   8.26497E-04   1.13115E-04   9.56092E-05   3.83236E-12     3296.93  1
 4.10099E-03   8.40383E-04   1.13060E-04   9.57349E-05   3.87823E-12     3321.32  1
 4.12099E-03   8.57611E-04   1.13056E-04   9.58877E-05   3.92255E-12     3342.56  1
 4.14099E-03   8.75630E-04   1.13043E-04   9.60761E-05   3.96382E-12     3372.73  1
 4.16100E-03   8.89340E-04   1.13024E-04   9.62889E-05   4.00184E-12     3370.88  1
 4.18100E-03   9.05390E-04   1.12985E-04   9.64442E-05   4.03860E-12     3380.87  1
 4.20100E-03   9.16980E-04   1.12936E-04   9.66131E-05   4.07859E-12     3341.12  1
 4.22100E-03   9.38368E-04   1.12824E-04   9.67502E-05   4.10510E-12     3315.74  1
 4.24100E-03   9.49058E-04   1.12879E-04   9.68677E-05   4.12962E-12     3357.23  1
 4.26100E-03   9.65743E-04   1.12831E-04   9.69521E-05   4.15231E-12     3374.22  1
 4.28100E-03   9.78100E-04   1.12752E-04   9.70254E-05   4.17418E-12     3352.67  1
 4.30100E-03   9.93813E-04   1.12665E-04   9.70713E-05   4.19102E-12     3334.71  1
 4.32100E-03   1.00607E-03   1.12571E-04   9.71229E-05   4.20803E-12     3296.36  1
 4.34100E-03   1.02275E-03   1.12481E-04   9.72346E-05   4.21710E-12     3280.75  1
 4.36100E-03   1.03434E-03   1.12377E-04   9.73312E-05   4.22771E-12     3291.61  1
 4.38100E-03   1.04985E-03   1.12266E-04   9.73933E-05   4.23622E-12     3304.34  1
 4.40100E-03   1.06352E-03   1.12154E-04   9.74383E-05   4.23825E-12     3326.23  1
 4.42100E-03   1.07941E-03   1.12058E-04   9.74747E-05   4.23676E-12     3321.91  1
 4.44100E-03   1.09072E-03   1.11984E-04   9.74676E-05   4.23913E-12     3333.02  1
 4.46100E-03   1.10625E-03   1.11970E-04   9.74186E-05   4.09131E-12     3324.84  0
 4.48100E-03   1.09938E-03   1.09531E-04   9.73952E-05   3.93072E-12     2862.54  0
 4.50100E-03   1.09683E-03   1.07825E-04   9.73378E-05   3.76551E-12     2579.82  0
 4.52100E-03   1.08781E-03   1.03738E-04   9.72227E-05   3.59906E-12     2389.48  0
 4.54100E-03   1.08198E-03   1.00069E-04   9.70624E-05   3.43495E-12     2259.12  0
 4.56100E-03   1.07418E-03   9.71848E-05   9.68367E-05   3.27572E-12     2161.13  0
 4.58100E-03   1.06429E-03   9.30765E-05   9.65688E-05   3.12056E-12     2083.65  0
 4.60100E-03   1.05464E-03   8.88446E-05   9.55426E-05   2.95332E-12     2020.18  0
 4.62100E-03   1.04554E-03   8.50598E-05   9.57229E-05   2.79776E-12     1959.02  0
 4.64100E-03   1.02955E-03   8.20252E-05   9.68711E-05   2.64045E-12     1903.38  0
 4.66100E-03   1.00950E-03   7.82140E-05   9.71392E-05   2.48510E-12     1853.85  0
 4.68100E-03   9.84923E-04   7.43089E-05   9.70826E-05   2.33323E-12     1811.46  0
 4.70100E-03   9.62811E-04   7.13887E-05   9.68628E-05   2.18477E-12     1776.00  0
 4.72100E-03   9.46728E-04   6.82021E-05   9.65377E-05   2.03966E-12     1746.14  0
