# Melt Pool Geometry History
# time(s)  length(m)  depth(m)  width(m)  volume(m3)  Tpeak(K)  laser_on
 2.10000E-05   0.00000E+00   0.00000E+00   0.00000E+00   6.61483E-14      293.00  1
 4.10000E-05   4.36426E-05   1.03386E-04   4.01626E-05   2.20100E-13     1897.38  1
 6.10000E-05   7.82566E-05   1.07881E-04   5.10570E-05   3.57386E-13     2425.89  1
 8.10000E-05   1.08847E-04   1.08094E-04   5.47043E-05   4.90564E-13     2492.01  1
 1.01000E-04   1.39668E-04   1.08074E-04   5.58674E-05   6.18407E-13     2513.92  1
 1.21000E-04   1.71008E-04   1.08015E-04   5.66922E-05   7.29775E-13     2530.38  1
 1.41000E-04   2.03533E-04   1.08008E-04   5.68978E-05   8.35607E-13     2526.62  1
 1.61000E-04   2.36087E-04   1.08058E-04   5.69989E-05   9.43625E-13     2493.87  1
 1.81000E-04   2.69056E-04   1.08099E-04   5.69762E-05   8.79174E-13     2457.30  0
 2.01000E-04   2.65513E-04   1.00392E-04   5.64422E-05   7.16597E-13     2177.13  0
 2.21000E-04   2.68974E-04   9.50499E-05   6.02519E-05   6.57900E-13     2001.09  0
 2.41000E-04   2.68030E-04   8.87075E-05   6.07972E-05   6.02295E-13     1893.87  0
 2.61000E-04   2.67044E-04   8.27430E-05   6.05857E-05   5.52702E-13     1823.19  0
 2.81000E-04   2.66076E-04   7.48000E-05   6.00374E-05   5.07626E-13     1773.74  0
 3.01000E-04   2.65155E-04   6.79642E-05   5.92994E-05   4.65952E-13     1735.72  0
 3.21000E-04   2.64324E-04   6.04111E-05   5.84486E-05   4.25889E-13     1705.81  0
 3.41000E-04   2.63692E-04   5.42331E-05   5.75271E-05   3.87040E-13     1681.62  0
 3.61000E-04   2.63353E-04   4.91248E-05   5.66158E-05   3.48529E-13     1662.02  0
 3.81000E-04   2.63007E-04   4.47529E-05   5.57966E-05   3.10543E-13     1646.30  0
 4.01000E-04   2.55290E-04   4.02760E-05   5.15316E-05   2.46208E-13     1634.08  0
 4.21000E-04   2.56861E-04   3.78115E-05   6.13505E-05   2.11413E-13     1625.67  0
 4.41000E-04   2.47007E-04   3.42823E-05   6.16085E-05   1.79606E-13     1622.62  0
 4.61000E-04   2.37355E-04   3.22369E-05   6.17748E-05   1.50326E-13     1621.36  0
 4.81000E-04   2.27857E-04   2.90096E-05   6.18690E-05   1.23786E-13     1619.59  0
 5.01000E-04   2.18878E-04   2.71094E-05   6.18958E-05   9.94826E-14     1617.36  0
 5.21000E-04   2.10597E-04   2.40667E-05   6.18688E-05   7.77212E-14     1614.66  0
 5.41000E-04   1.93568E-04   2.24510E-05   6.17870E-05   5.83493E-14     1611.54  0
 5.61000E-04   1.77833E-04   1.92429E-05   6.16267E-05   4.14207E-14     1607.90  0
 5.81000E-04   1.63437E-04   1.78899E-05   6.13958E-05   2.73335E-14     1603.77  0
 6.01000E-04   1.42452E-04   1.53388E-05   5.31364E-05   1.35735E-14     1597.91  0
 6.21000E-04   1.22293E-04   1.28968E-05   5.17618E-05   5.70798E-15     1592.70  0
 6.41000E-04   9.64665E-05   9.56294E-06   4.30550E-05   1.14153E-15     1585.85  0
 6.61000E-04   6.17049E-05   7.21804E-06   3.33251E-05   0.00000E+00     1576.88  0
 6.81000E-04   0.00000E+00   0.00000E+00   0.00000E+00   7.67292E-14     1552.68  1
 7.01000E-04   4.22954E-05   1.03339E-04   4.50567E-05   2.25060E-13     1844.67  1
 7.21000E-04   8.09118E-05   1.07776E-04   5.48962E-05   3.65929E-13     2329.50  1
 7.41000E-04   1.13037E-04   1.07991E-04   5.85926E-05   5.01884E-13     2484.78  1
 7.61000E-04   1.45757E-04   1.08041E-04   5.98313E-05   6.22362E-13     2508.83  1
 7.81000E-04   1.76910E-04   1.08048E-04   6.06940E-05   7.37491E-13     2578.88  1
 8.01000E-04   2.07676E-04   1.07733E-04   6.05728E-05   8.41944E-13     2512.80  1
 8.21000E-04   2.41423E-04   1.08061E-04   6.17688E-05   9.55318E-13     2487.66  1
 8.41000E-04   2.73924E-04   1.08147E-04   6.20817E-05   1.04991E-12     2485.49  1
 8.61000E-04   3.04810E-04   1.08162E-04   6.21408E-05   1.14138E-12     2582.76  1
 8.81000E-04   3.36247E-04   1.08141E-04   6.21660E-05   1.22644E-12     2553.26  1
 9.01000E-04   3.68585E-04   1.08072E-04   6.21150E-05   1.31224E-12     2528.25  1
 9.21000E-04   4.01513E-04   1.08125E-04   6.21805E-05   1.39866E-12     2499.94  1
 9.41000E-04   4.33702E-04   1.08104E-04   6.23927E-05   1.46586E-12     2471.78  1
 9.61000E-04   4.64486E-04   1.08042E-04   6.24759E-05   1.53153E-12     2558.11  1
 9.81000E-04   4.95864E-04   1.07944E-04   6.24069E-05   1.59136E-12     2523.25  1
 1.00100E-03   5.28019E-04   1.07824E-04   6.23185E-05   1.64459E-12     2512.30  1
 1.02100E-03   5.60722E-04   1.07886E-04   6.21658E-05   1.70121E-12     2494.41  1
 1.04100E-03   5.90714E-04   1.07902E-04   6.21222E-05   1.58067E-12     2461.92  0
 1.06100E-03   5.91383E-04   1.02692E-04   6.21228E-05   1.46054E-12     2151.06  0
 1.08100E-03   5.92006E-04   9.72331E-05   6.19806E-05   1.34915E-12     2004.68  0
 1.10100E-03   5.86287E-04   9.00680E-05   6.17336E-05   1.24880E-12     1922.88  0
 1.12100E-03   5.82383E-04   8.33422E-05   6.13765E-05   1.15772E-12     1863.55  0
 1.14100E-03   5.75641E-04   7.64673E-05   6.08764E-05   1.07384E-12     1816.32  0
 1.16100E-03   5.72118E-04   6.88290E-05   6.02530E-05   9.93990E-13     1776.90  0
 1.18100E-03   5.64063E-04   6.28319E-05   5.95304E-05   9.17728E-13     1744.10  0
 1.20100E-03   5.48401E-04   5.67063E-05   5.75740E-05   8.09011E-13     1715.64  0
 1.22100E-03   5.46101E-04   5.24994E-05   5.85002E-05   7.36627E-13     1689.96  0
 1.24100E-03   5.37813E-04   4.81265E-05   5.77293E-05   6.66061E-13     1668.71  0
 1.26100E-03   5.29279E-04   4.42284E-05   5.69816E-05   5.98363E-13     1652.08  0
 1.28100E-03   5.20135E-04   4.15277E-05   5.63227E-05   5.33340E-13     1639.33  0
 1.30100E-03   5.08112E-04   3.84847E-05   5.58352E-05   4.71560E-13     1630.11  0
 1.32100E-03   4.95064E-04   3.57142E-05   5.56299E-05   4.13416E-13     1624.53  0
 1.34100E-03   4.82888E-04   3.34178E-05   5.54485E-05   3.59068E-13     1622.67  0
 1.36100E-03   4.69380E-04   3.08728E-05   5.52766E-05   3.08331E-13     1621.76  0
 1.38100E-03   4.51639E-04   2.87225E-05   5.51020E-05   2.61318E-13     1620.47  0
 1.40100E-03   4.33021E-04   2.66130E-05   5.07404E-05   1.89526E-13     1618.62  0
 1.42100E-03   4.08701E-04   2.41229E-05   6.10296E-05   1.45090E-13     1616.42  0
 1.44100E-03   3.84228E-04   2.26776E-05   6.10590E-05   1.07367E-13     1613.64  0
 1.46100E-03   3.57702E-04   1.97280E-05   6.08754E-05   7.52039E-14     1610.27  0
 1.48100E-03   3.26271E-04   1.81724E-05   5.94662E-05   4.89091E-14     1606.26  0
 1.50100E-03   2.92804E-04   1.55436E-05   5.56795E-05   2.78928E-14     1601.48  0
 1.52100E-03   2.54859E-04   1.35463E-05   5.29672E-05   1.30306E-14     1595.96  0
 1.54100E-03   2.12311E-04   1.09744E-05   4.40479E-05   8.21676E-14     1589.29  1
 1.56100E-03   4.35893E-05   1.03604E-04   4.24709E-05   2.23983E-13     1859.15  1
 1.58100E-03   7.54421E-05   1.07792E-04   5.48003E-05   3.52337E-13     2464.38  1
 1.60100E-03   1.06033E-04   1.07423E-04   5.80123E-05   4.90606E-13     2435.82  1
 1.62100E-03   1.40278E-04   1.07840E-04   6.33054E-05   6.20975E-13     2438.16  1
 1.64100E-03   1.72888E-04   1.07995E-04   6.58630E-05   7.41707E-13     2450.67  1
 1.66100E-03   2.04644E-04   1.08072E-04   6.67268E-05   8.48204E-13     2469.02  1
 1.68100E-03   2.33341E-04   1.08101E-04   6.72100E-05   9.54606E-13     2479.40  1
 1.70100E-03   2.64505E-04   1.08096E-04   6.73832E-05   1.05403E-12     2435.30  1
 1.72100E-03   2.98878E-04   1.08143E-04   6.74904E-05   1.15137E-12     2483.15  1
 1.74100E-03   3.31582E-04   1.08245E-04   6.75285E-05   1.24042E-12     2465.81  1
 1.76100E-03   3.62174E-04   1.08279E-04   6.74679E-05   1.32175E-12     2485.09  1
 1.78100E-03   3.92582E-04   1.08282E-04   6.74408E-05   1.40412E-12     2433.59  1
 1.80100E-03   4.24256E-04   1.08202E-04   6.74631E-05   1.48466E-12     2443.39  1
 1.82100E-03   4.61299E-04   1.08361E-04   6.75183E-05   1.55784E-12     2469.64  1
 1.84100E-03   4.91277E-04   1.08399E-04   6.75755E-05   1.62151E-12     2470.70  1
 1.86100E-03   5.21433E-04   1.08382E-04   6.75958E-05   1.68829E-12     2464.38  1
 1.88100E-03   5.52316E-04   1.08327E-04   6.75917E-05   1.75099E-12     2443.04  1
 1.90100E-03   5.85295E-04   1.08259E-04   6.76184E-05   1.81471E-12     2484.82  1
 1.92100E-03   6.16300E-04   1.08345E-04   6.76973E-05   1.86989E-12     2477.31  1
 1.94100E-03   6.40856E-04   1.08342E-04   6.76966E-05   1.91107E-12     2494.88  1
 1.96100E-03   6.63092E-04   1.08273E-04   6.76729E-05   1.95631E-12     2477.12  1
 1.98100E-03   6.87552E-04   1.08175E-04   6.76005E-05   1.99527E-12     2444.67  1
 2.00100E-03   7.14112E-04   1.08013E-04   6.75413E-05   2.03649E-12     2471.57  1
 2.02100E-03   7.44042E-04   1.08082E-04   6.74921E-05   2.06451E-12     2457.02  1
 2.04100E-03   7.65953E-04   1.08021E-04   6.73681E-05   2.08546E-12     2504.70  1
 2.06100E-03   7.92355E-04   1.07927E-04   6.70867E-05   1.94500E-12     2442.53  0
 2.08100E-03   7.86361E-04   1.03019E-04   6.31494E-05   1.80083E-12     2173.90  0
 2.10100E-03   7.81912E-04   9.77502E-05   6.26594E-05   1.66607E-12     2029.94  0
 2.12100E-03   7.74884E-04   9.14189E-05   6.24074E-05   1.54290E-12     1943.73  0
 2.14100E-03   7.66585E-04   8.46439E-05   6.21164E-05   1.42996E-12     1880.64  0
 2.16100E-03   7.59150E-04   7.82451E-05   6.16869E-05   1.32451E-12     1831.11  0
 2.18100E-03   7.52682E-04   7.15706E-05   6.11276E-05   1.22506E-12     1790.46  0
 2.20100E-03   7.42202E-04   6.42568E-05   6.02010E-05   1.12437E-12     1755.77  0
 2.22100E-03   7.31683E-04   5.88293E-05   5.95845E-05   1.03262E-12     1725.80  0
 2.24100E-03   7.21094E-04   5.40141E-05   5.88094E-05   9.43734E-13     1700.61  0
 2.26100E-03   7.09748E-04   4.98843E-05   5.79790E-05   8.57644E-13     1679.60  0
 2.28100E-03   6.97415E-04   4.69776E-05   5.71499E-05   7.74028E-13     1662.00  0
 2.30100E-03   6.84428E-04   4.34728E-05   5.63872E-05   6.94019E-13     1647.61  0
 2.32100E-03   6.68578E-04   4.04969E-05   5.59259E-05   6.17302E-13     1636.58  0
 2.34100E-03   6.51257E-04   3.82072E-05   5.57989E-05   5.44814E-13     1628.80  0
 2.36100E-03   6.31718E-04   3.53758E-05   5.56796E-05   4.76762E-13     1624.14  0
 2.38100E-03   6.11439E-04   3.33773E-05   5.55610E-05   4.13470E-13     1622.66  0
 2.40100E-03   5.83439E-04   3.06279E-05   5.25354E-05   3.12036E-13     1621.75  0
 2.42100E-03   5.59062E-04   2.86292E-05   6.14339E-05   2.50988E-13     1620.38  0
 2.44100E-03   5.21664E-04   2.66252E-05   6.15625E-05   1.97841E-13     1618.45  0
 2.46100E-03   4.84772E-04   2.41338E-05   6.15306E-05   1.52248E-13     1615.97  0
 2.48100E-03   4.48231E-04   2.26758E-05   6.14038E-05   1.13165E-13     1612.97  0
 2.50100E-03   4.07185E-04   1.97489E-05   5.91087E-05   8.01031E-14     1609.38  0
 2.52100E-03   3.65135E-04   1.81430E-05   5.64393E-05   5.29762E-14     1605.27  0
 2.54100E-03   3.22900E-04   1.55887E-05   5.42139E-05   3.14198E-14     1600.51  0
 2.56100E-03   2.76908E-04   1.36509E-05   5.14317E-05   1.03172E-13     1595.09  1
 2.58100E-03   4.08868E-05   1.03800E-04   4.47797E-05   2.28957E-13     1869.19  1
 2.60100E-03   7.76862E-05   1.06689E-04   5.38228E-05   3.60981E-13     2358.76  1
 2.62100E-03   1.11348E-04   1.07834E-04   5.82957E-05   4.98138E-13     2449.85  1
 2.64100E-03   1.44625E-04   1.07914E-04   5.99222E-05   6.15843E-13     2513.84  1
 2.66100E-03   1.75603E-04   1.07910E-04   6.05254E-05   7.29242E-13     2533.01  1
 2.68100E-03   2.07469E-04   1.07902E-04   6.08767E-05   8.41504E-13     2514.08  1
 2.70100E-03   2.40790E-04   1.08028E-04   6.12338E-05   9.48109E-13     2503.13  1
 2.72100E-03   2.71399E-04   1.08145E-04   6.14031E-05   1.04616E-12     2500.77  1
 2.74100E-03   3.04531E-04   1.08188E-04   6.15443E-05   1.13719E-12     2490.45  1
 2.76100E-03   3.35591E-04   1.08211E-04   6.16286E-05   1.22487E-12     2529.22  1
 2.78100E-03   3.67573E-04   1.08193E-04   6.17275E-05   1.30960E-12     2520.36  1
 2.80100E-03   3.99185E-04   1.08161E-04   6.18208E-05   1.39455E-12     2502.01  1
 2.82100E-03   4.31761E-04   1.08348E-04   6.20174E-05   1.47896E-12     2500.42  1
 2.84100E-03   4.64357E-04   1.08381E-04   6.21479E-05   1.54486E-12     2497.48  1
 2.86100E-03   4.95184E-04   1.08394E-04   6.22186E-05   1.61383E-12     2604.50  1
 2.88100E-03   5.26486E-04   1.08358E-04   6.22183E-05   1.68002E-12     2551.39  1
 2.90100E-03   5.58754E-04   1.08316E-04   6.23271E-05   1.74450E-12     2531.46  1
 2.92100E-03   5.91264E-04   1.08462E-04   6.26850E-05   1.80975E-12     2523.10  1
 2.94100E-03   6.23489E-04   1.08490E-04   6.28900E-05   1.85928E-12     2503.26  1
 2.96100E-03   6.54083E-04   1.08503E-04   6.29866E-05   1.90728E-12     2611.61  1
 2.98100E-03   6.78162E-04   1.08458E-04   6.30060E-05   1.95755E-12     2584.53  1
 3.00100E-03   7.00285E-04   1.08398E-04   6.29663E-05   2.00463E-12     2539.26  1
 3.02100E-03   7.23506E-04   1.08520E-04   6.30846E-05   2.05502E-12     2531.28  1
 3.04100E-03   7.47971E-04   1.08539E-04   6.33395E-05   2.08914E-12     2507.75  1
 3.06100E-03   7.72992E-04   1.08539E-04   6.34684E-05   2.12439E-12     2622.81  1
 3.08100E-03   7.96767E-04   1.08468E-04   6.35239E-05   2.15843E-12     2571.85  1
 3.10100E-03   8.21416E-04   1.08364E-04   6.34891E-05   2.19474E-12     2541.67  1
 3.12100E-03   8.47175E-04   1.08450E-04   6.34682E-05   2.22882E-12     2520.42  1
 3.14100E-03   8.73464E-04   1.08401E-04   6.36145E-05   2.24408E-12     2508.18  1
 3.16100E-03   8.95683E-04   1.08321E-04   6.37537E-05   2.26372E-12     2613.55  1
 3.18100E-03   9.18456E-04   1.08220E-04   6.37824E-05   2.28054E-12     2550.95  1
 3.20100E-03   9.41267E-04   1.08078E-04   6.37256E-05   2.29363E-12     2509.02  1
 3.22100E-03   9.65383E-04   1.08044E-04   6.36317E-05   2.30288E-12     2506.74  1
 3.24100E-03   9.86521E-04   1.08032E-04   6.35947E-05   2.31849E-12     2500.42  1
 3.26100E-03   1.00760E-03   1.07978E-04   6.35633E-05   2.31786E-12     2475.01  1
 3.28100E-03   1.02623E-03   1.07912E-04   6.35094E-05   2.15532E-12     2570.91  0
 3.30100E-03   1.01260E-03   1.02944E-04   6.33595E-05   1.98975E-12     2188.98  0
 3.32100E-03   9.98482E-04   9.76450E-05   6.30877E-05   1.83724E-12     2029.15  0
 3.34100E-03   9.84046E-04   9.07134E-05   6.27476E-05   1.69700E-12     1938.76  0
 3.36100E-03   9.64742E-04   8.40804E-05   6.23391E-05   1.56830E-12     1876.16  0
 3.38100E-03   9.47935E-04   7.76974E-05   6.18398E-05   1.44843E-12     1826.83  0
 3.40100E-03   9.25779E-04   6.96820E-05   5.98789E-05   1.25883E-12     1785.83  0
 3.42100E-03   9.06938E-04   6.35221E-05   6.27642E-05   1.12998E-12     1738.77  0
 3.44100E-03   8.83322E-04   5.81220E-05   6.32223E-05   1.00750E-12     1697.85  0
 3.46100E-03   8.59096E-04   5.32462E-05   6.33126E-05   8.92138E-13     1668.95  0
 3.48100E-03   8.29992E-04   4.88450E-05   6.34179E-05   7.84777E-13     1648.57  0
 3.50099E-03   8.02205E-04   4.50126E-05   6.34757E-05   6.85619E-13     1635.14  0
 3.52099E-03   7.71047E-04   4.23021E-05   6.35063E-05   5.94357E-13     1627.01  0
 3.54099E-03   7.41808E-04   3.85223E-05   6.35132E-05   5.11030E-13     1623.21  0
 3.56099E-03   7.10714E-04   3.53347E-05   6.34873E-05   4.34905E-13     1622.29  0
 3.58099E-03   6.78151E-04   3.29851E-05   6.34364E-05   3.65792E-13     1621.19  0
 3.60099E-03   6.44050E-04   2.97917E-05   5.88668E-05   2.74313E-13     1619.27  0
 3.62099E-03   6.01879E-04   2.79536E-05   6.31760E-05   2.14939E-13     1617.11  0
 3.64099E-03   5.57934E-04   2.49320E-05   6.28628E-05   1.64734E-13     1614.48  0
 3.66099E-03   5.12148E-04   2.31277E-05   6.17587E-05   1.22006E-13     1611.59  0
 3.68099E-03   4.68000E-04   2.03940E-05   5.80773E-05   8.60489E-14     1608.16  0
 3.70099E-03   4.21630E-04   1.84389E-05   5.52702E-05   5.64083E-14     1604.27  0
 3.72099E-03   3.72403E-04   1.60601E-05   5.32888E-05   3.30710E-14     1599.73  0
 3.74099E-03   3.20588E-04   1.37123E-05   5.07752E-05   1.61543E-14     1594.49  0
 3.76099E-03   2.60133E-04   1.14141E-05   4.37988E-05   5.23464E-15     1588.28  0
 3.78099E-03   1.92813E-04   8.53871E-06   3.39407E-05   8.16475E-14     1580.74  1
 3.80099E-03   4.22100E-05   1.03664E-04   4.24664E-05   2.25519E-13     1860.56  1
 3.82099E-03   7.37211E-05   1.07734E-04   5.57615E-05   3.62910E-13     2392.44  1
 3.84099E-03   1.08676E-04   1.07997E-04   5.90509E-05   4.91415E-13     2474.80  1
 3.86099E-03   1.43315E-04   1.08141E-04   6.02345E-05   6.18959E-13     2503.50  1
 3.88099E-03   1.74432E-04   1.08239E-04   6.10878E-05   7.38726E-13     2509.38  1
 3.90099E-03   2.04271E-04   1.08291E-04   6.15854E-05   8.51817E-13     2543.17  1
 3.92099E-03   2.35086E-04   1.08300E-04   6.19675E-05   9.55220E-13     2498.45  1
 3.94099E-03   2.68666E-04   1.08322E-04   6.22917E-05   1.05663E-12     2530.65  1
 3.96099E-03   3.02630E-04   1.08510E-04   6.25448E-05   1.15640E-12     2524.45  1
 3.98099E-03   3.32483E-04   1.08591E-04   6.27302E-05   1.25180E-12     2524.19  1
 4.00099E-03   3.62338E-04   1.08168E-04   6.19781E-05   1.32351E-12     2438.64  1
 4.02099E-03   3.93282E-04   1.08250E-04   6.61378E-05   1.41455E-12     2433.23  1
 4.04099E-03   4.26608E-04   1.08257E-04   6.71897E-05   1.50161E-12     2484.10  1
 4.06099E-03   4.61674E-04   1.08418E-04   6.78988E-05   1.57817E-12     2473.00  1
 4.08099E-03   4.91664E-04   1.08478E-04   6.84366E-05   1.63774E-12     2489.91  1
 4.10099E-03   5.21892E-04   1.08484E-04   6.86880E-05   1.70183E-12     2507.20  1
 4.12099E-03   5.52763E-04   1.08440E-04   6.87847E-05   1.75909E-12     2457.19  1
 4.14099E-03   5.86076E-04   1.08395E-04   6.88128E-05   1.82053E-12     2487.90  1
 4.16100E-03   6.20320E-04   1.08545E-04   6.88608E-05   1.87488E-12     2478.62  1
 4.18100E-03   6.46462E-04   1.08591E-04   6.88661E-05   1.91587E-12     2516.04  1
 4.20100E-03   6.65292E-04   1.08421E-04   6.87549E-05   1.97289E-12     2530.38  1
 4.22100E-03   6.92969E-04   1.08661E-04   6.86604E-05   2.01366E-12     2468.60  1
 4.24100E-03   7.14365E-04   1.08662E-04   6.85619E-05   2.05119E-12     2502.24  1
 4.26100E-03   7.37483E-04   1.08638E-04   6.86356E-05   2.09301E-12     2481.79  1
 4.28100E-03   7.62684E-04   1.08580E-04   6.87484E-05   2.12929E-12     2470.76  1
 4.30100E-03   7.88035E-04   1.08512E-04   6.88469E-05   2.16826E-12     2506.07  1
 4.32100E-03   8.14936E-04   1.08644E-04   6.89198E-05   2.20113E-12     2494.27  1
 4.34100E-03   8.41477E-04   1.08680E-04   6.90351E-05   2.22527E-12     2504.56  1
 4.36100E-03   8.62043E-04   1.08671E-04   6.90824E-05   2.25484E-12     2521.20  1
 4.38100E-03   8.84731E-04   1.08607E-04   6.90600E-05   2.28135E-12     2474.71  1
 4.40100E-03   9.08629E-04   1.08517E-04   6.90149E-05   2.30292E-12     2477.13  1
 4.42100E-03   9.32927E-04   1.08707E-04   6.89638E-05   2.32616E-12     2496.33  1
 4.44100E-03   9.53060E-04   1.08616E-04   6.89955E-05   2.34432E-12     2474.82  1
 4.46100E-03   9.75932E-04   1.08470E-04   6.90224E-05   2.36495E-12     2521.32  1
 4.48100E-03   1.00058E-03   1.08569E-04   6.90169E-05   2.38021E-12     2503.55  1
 4.50100E-03   1.01804E-03   1.08560E-04   6.89328E-05   2.38807E-12     2514.24  1
 4.52100E-03   1.03429E-03   1.08487E-04   6.88336E-05   2.40168E-12     2462.98  1
 4.54100E-03   1.05012E-03   1.08348E-04   6.88165E-05   2.40749E-12     2468.50  1
 4.56100E-03   1.06816E-03   1.08222E-04   6.87561E-05   2.41882E-12     2514.48  1
 4.58100E-03   1.08408E-03   1.08214E-04   6.86402E-05   2.42501E-12     2485.98  1
 4.60100E-03   1.09505E-03   1.08182E-04   6.85139E-05   2.41663E-12     2511.44  1
 4.62100E-03   1.10533E-03   1.08098E-04   6.84513E-05   2.41474E-12     2484.13  1
 4.64100E-03   1.11598E-03   1.07994E-04   6.83596E-05   2.40969E-12     2438.06  1
 4.66100E-03   1.12605E-03   1.07862E-04   6.82138E-05   2.24315E-12     2471.66  0
 4.68100E-03   1.10382E-03   1.03112E-04   6.80360E-05   2.07187E-12     2164.60  0
 4.70100E-03   1.07909E-03   9.78152E-05   6.77795E-05   1.91248E-12     2022.78  0
 4.72100E-03   1.05376E-03   9.18314E-05   6.74943E-05   1.76585E-12     1941.00  0
