# Melt Pool Geometry History
# time(s)  length(m)  depth(m)  width(m)  volume(m3)  Tpeak(K)  laser_on
 2.10000E-05   0.00000E+00   0.00000E+00   0.00000E+00   7.41233E-14      293.00  1
 4.10000E-05   4.40598E-05   1.03456E-04   4.02431E-05   2.30860E-13     1904.66  1
 6.10000E-05   7.41487E-05   1.08916E-04   5.66123E-05   3.60757E-13     2705.60  1
 8.10000E-05   9.94401E-05   1.10613E-04   6.23919E-05   4.89112E-13     2987.64  1
 1.01000E-04   1.23456E-04   1.11167E-04   6.43112E-05   6.09873E-13     3097.54  1
 1.21000E-04   1.47115E-04   1.11421E-04   6.56345E-05   5.85585E-13     3186.00  0
 1.41000E-04   1.48157E-04   1.08741E-04   6.56948E-05   5.53868E-13     2776.93  0
 1.61000E-04   1.48679E-04   1.05530E-04   6.55760E-05   5.19498E-13     2537.86  0
 1.81000E-04   1.48996E-04   1.02530E-04   6.51463E-05   4.85249E-13     2380.66  0
 2.01000E-04   1.48459E-04   9.71932E-05   6.45160E-05   4.48959E-13     2256.92  0
 2.21000E-04   1.47242E-04   9.12024E-05   6.77611E-05   4.25398E-13     2092.59  0
 2.41000E-04   1.47148E-04   8.48761E-05   6.92181E-05   3.98192E-13     1966.63  0
 2.61000E-04   1.46548E-04   7.90489E-05   6.93405E-05   3.71704E-13     1873.85  0
 2.81000E-04   1.45788E-04   7.34190E-05   6.90050E-05   3.46361E-13     1807.68  0
 3.01000E-04   1.44970E-04   6.79570E-05   6.84230E-05   3.21567E-13     1758.63  0
 3.21000E-04   1.44201E-04   6.26309E-05   6.76830E-05   2.96762E-13     1721.16  0
 3.41000E-04   1.43687E-04   5.73331E-05   6.68427E-05   2.71382E-13     1691.64  0
 3.61000E-04   1.43461E-04   5.23684E-05   6.59946E-05   2.45813E-13     1668.52  0
 3.81000E-04   1.43367E-04   4.76973E-05   6.52349E-05   2.20157E-13     1650.52  0
 4.01000E-04   1.43259E-04   4.32079E-05   6.47691E-05   1.95311E-13     1637.03  0
 4.21000E-04   1.43138E-04   3.90677E-05   6.46432E-05   1.71334E-13     1627.91  0
 4.41000E-04   1.42998E-04   3.55949E-05   6.45486E-05   1.48642E-13     1623.22  0
 4.61000E-04   1.42833E-04   3.28693E-05   6.44396E-05   1.27230E-13     1622.16  0
 4.81000E-04   1.42635E-04   2.92545E-05   6.43081E-05   1.06863E-13     1620.88  0
 5.01000E-04   1.42392E-04   2.70457E-05   6.41463E-05   8.75750E-14     1619.16  0
 5.21000E-04   1.42091E-04   2.39195E-05   6.39452E-05   6.94026E-14     1616.94  0
 5.41000E-04   1.41704E-04   2.18668E-05   6.36894E-05   5.23492E-14     1614.14  0
 5.61000E-04   1.41176E-04   1.90344E-05   6.33636E-05   3.67313E-14     1610.67  0
 5.81000E-04   1.35424E-04   1.74925E-05   6.29383E-05   2.31240E-14     1606.50  0
 6.01000E-04   1.23781E-04   1.43062E-05   6.23852E-05   1.24169E-14     1601.36  0
 6.21000E-04   1.01200E-04   1.27276E-05   6.16038E-05   1.01744E-13     1595.33  1
 6.41000E-04   4.36191E-05   1.04616E-04   4.79616E-05   2.78678E-13     1866.15  1
 6.61000E-04   8.12731E-05   1.09868E-04   7.29498E-05   4.43046E-13     2716.31  1
 6.81000E-04   1.04416E-04   1.11650E-04   8.54850E-05   6.13606E-13     3041.59  1
 7.01000E-04   1.32658E-04   1.12557E-04   9.19999E-05   7.73938E-13     3171.76  1
 7.21000E-04   1.50793E-04   1.12905E-04   9.70715E-05   9.30419E-13     3242.77  1
 7.41000E-04   1.72187E-04   1.13029E-04   9.95080E-05   1.09184E-12     3275.17  1
 7.61000E-04   1.94228E-04   1.13007E-04   1.07933E-04   1.24717E-12     3273.29  1
 7.81000E-04   2.19204E-04   1.12831E-04   1.11994E-04   1.39410E-12     3262.90  1
 8.01000E-04   2.39184E-04   1.12509E-04   1.13678E-04   1.53994E-12     3209.27  1
 8.21000E-04   2.64637E-04   1.11997E-04   1.14858E-04   1.51897E-12     3193.90  0
 8.41000E-04   2.66587E-04   1.09814E-04   1.15707E-04   1.47909E-12     2762.70  0
 8.61000E-04   2.67248E-04   1.08119E-04   1.16296E-04   1.43142E-12     2509.09  0
 8.81000E-04   2.67276E-04   1.04680E-04   1.16601E-04   1.37748E-12     2326.47  0
 9.01000E-04   2.66819E-04   1.02559E-04   1.16691E-04   1.32109E-12     2196.58  0
 9.21000E-04   2.66544E-04   9.86828E-05   1.16499E-04   1.26236E-12     2095.86  0
 9.41000E-04   2.66223E-04   9.55636E-05   1.16125E-04   1.20241E-12     2017.63  0
 9.61000E-04   2.65857E-04   9.29034E-05   1.15613E-04   1.14362E-12     1953.74  0
 9.81000E-04   2.65521E-04   8.91597E-05   1.15821E-04   1.08468E-12     1900.94  0
 1.00100E-03   2.65186E-04   8.63442E-05   1.15676E-04   1.02622E-12     1854.84  0
 1.02100E-03   2.64799E-04   8.32277E-05   1.15320E-04   9.68685E-13     1815.15  0
 1.04100E-03   2.64388E-04   7.96799E-05   1.14929E-04   9.11193E-13     1781.21  0
 1.06100E-03   2.63973E-04   7.73091E-05   1.14397E-04   8.54085E-13     1751.71  0
 1.08100E-03   2.63587E-04   7.36413E-05   1.13710E-04   7.97565E-13     1725.94  0
 1.10100E-03   2.63353E-04   7.04512E-05   1.12899E-04   7.41289E-13     1703.75  0
 1.12100E-03   2.63227E-04   6.78910E-05   1.11999E-04   6.85767E-13     1684.76  0
 1.14100E-03   2.63067E-04   6.42768E-05   1.11016E-04   6.31115E-13     1668.53  0
 1.16100E-03   2.62872E-04   6.15949E-05   1.09889E-04   5.77813E-13     1655.04  0
 1.18100E-03   2.62638E-04   5.84686E-05   1.08750E-04   5.25884E-13     1644.04  0
 1.20100E-03   2.56729E-04   5.47274E-05   1.05833E-04   4.46979E-13     1635.25  0
 1.22100E-03   2.59583E-04   5.26614E-05   1.11905E-04   3.95027E-13     1628.66  0
 1.24100E-03   2.53284E-04   4.91922E-05   1.11543E-04   3.47158E-13     1624.47  0
 1.26100E-03   2.44913E-04   4.69813E-05   1.11005E-04   3.02917E-13     1622.85  0
 1.28100E-03   2.38736E-04   4.39028E-05   1.08725E-04   2.61863E-13     1622.33  0
 1.30100E-03   2.32423E-04   4.15472E-05   1.05690E-04   2.24041E-13     1621.61  0
 1.32100E-03   2.25258E-04   3.88392E-05   1.03875E-04   2.76631E-13     1620.69  1
 1.34100E-03   4.40929E-05   1.04543E-04   4.17022E-05   4.14906E-13     1868.48  1
 1.36100E-03   7.35698E-05   1.09826E-04   6.19239E-05   5.53055E-13     2695.32  1
 1.38100E-03   1.06459E-04   1.11519E-04   7.90341E-05   7.09173E-13     3009.76  1
 1.40100E-03   2.85581E-04   1.12100E-04   1.47776E-04   8.84848E-13     3053.21  1
 1.42100E-03   2.77989E-04   1.12944E-04   1.52991E-04   1.06544E-12     3199.79  1
 1.44100E-03   2.73452E-04   1.13503E-04   1.49280E-04   1.23706E-12     3329.90  1
 1.46100E-03   2.65863E-04   1.14061E-04   1.47260E-04   1.41235E-12     3374.79  1
 1.48100E-03   2.58940E-04   1.14856E-04   1.44002E-04   1.59862E-12     3402.69  1
 1.50100E-03   2.58596E-04   1.15180E-04   1.43677E-04   1.77734E-12     3432.30  1
 1.52100E-03   2.75048E-04   1.15394E-04   1.44211E-04   1.95158E-12     3468.90  1
 1.54100E-03   2.95140E-04   1.15350E-04   1.45064E-04   2.12361E-12     3462.52  1
 1.56100E-03   3.14866E-04   1.15065E-04   1.45609E-04   2.28372E-12     3438.80  1
 1.58100E-03   3.34551E-04   1.14614E-04   1.45900E-04   2.43559E-12     3412.95  1
 1.60100E-03   3.56203E-04   1.13998E-04   1.46078E-04   2.57294E-12     3354.20  1
 1.62100E-03   3.78626E-04   1.13482E-04   1.46143E-04   2.70209E-12     3257.33  1
 1.64100E-03   3.99512E-04   1.12820E-04   1.46403E-04   2.66960E-12     3203.54  0
 1.66100E-03   4.00179E-04   1.11324E-04   1.47323E-04   2.61360E-12     2769.49  0
 1.68100E-03   4.00093E-04   1.09031E-04   1.47936E-04   2.54420E-12     2515.52  0
 1.70100E-03   3.99842E-04   1.07533E-04   1.48381E-04   2.46745E-12     2347.69  0
 1.72100E-03   3.99488E-04   1.04188E-04   1.48633E-04   2.38960E-12     2231.06  0
 1.74100E-03   3.99137E-04   1.02498E-04   1.49792E-04   2.30743E-12     2143.30  0
 1.76100E-03   3.98897E-04   9.90616E-05   1.50557E-04   2.22348E-12     2072.43  0
 1.78100E-03   3.98620E-04   9.70286E-05   1.50784E-04   2.13809E-12     2013.74  0
 1.80100E-03   3.95754E-04   9.39790E-05   1.50293E-04   2.04123E-12     1961.47  0
 1.82100E-03   4.00835E-04   9.18885E-05   1.48170E-04   1.94923E-12     1914.71  0
 1.84100E-03   3.99241E-04   8.89634E-05   1.47604E-04   1.85833E-12     1873.69  0
 1.86100E-03   3.97792E-04   8.69132E-05   1.46927E-04   1.76701E-12     1836.38  0
 1.88100E-03   3.96086E-04   8.40093E-05   1.46148E-04   1.67644E-12     1803.38  0
 1.90100E-03   3.93982E-04   8.20512E-05   1.45338E-04   1.58647E-12     1773.91  0
 1.92100E-03   3.89970E-04   7.90870E-05   1.44486E-04   1.49742E-12     1748.12  0
 1.94100E-03   3.85127E-04   7.73908E-05   1.43015E-04   1.41002E-12     1725.33  0
 1.96100E-03   3.82503E-04   7.42212E-05   1.39788E-04   1.32390E-12     1705.47  0
 1.98100E-03   3.76098E-04   7.25916E-05   1.37507E-04   1.23946E-12     1688.15  0
 2.00100E-03   3.72889E-04   6.93835E-05   1.36334E-04   1.15700E-12     1673.17  0
 2.02100E-03   3.66736E-04   6.77392E-05   1.35494E-04   1.07706E-12     1660.59  0
 2.04100E-03   3.63086E-04   6.47964E-05   1.34520E-04   9.99506E-13     1650.36  0
 2.06100E-03   3.57268E-04   6.30909E-05   1.33519E-04   9.24947E-13     1641.90  0
 2.08100E-03   3.53252E-04   6.04230E-05   1.31703E-04   8.53216E-13     1635.13  0
 2.10100E-03   3.51954E-04   5.84831E-05   1.27523E-04   7.84593E-13     1629.90  0
 2.12100E-03   3.48307E-04   5.62439E-05   1.26082E-04   7.18748E-13     1626.10  0
 2.14100E-03   3.42625E-04   5.39751E-05   1.24925E-04   7.43302E-13     1623.77  1
 2.16100E-03   4.52894E-05   1.04221E-04   4.40330E-05   8.57664E-13     1848.86  1
 2.18100E-03   7.40368E-05   1.09651E-04   6.05172E-05   9.69771E-13     2686.51  1
 2.20100E-03   4.02898E-04   1.11557E-04   1.66160E-04   1.10008E-12     2998.75  1
 2.22100E-03   3.99989E-04   1.12665E-04   1.64045E-04   1.24123E-12     3171.98  1
 2.24100E-03   3.93711E-04   1.13201E-04   1.67387E-04   1.40137E-12     3308.40  1
 2.26100E-03   3.90509E-04   1.13731E-04   1.67474E-04   1.57414E-12     3382.43  1
 2.28100E-03   3.84369E-04   1.14676E-04   1.66914E-04   1.74186E-12     3411.22  1
 2.30100E-03   3.80650E-04   1.15562E-04   1.64220E-04   1.91343E-12     3425.53  1
 2.32100E-03   3.74536E-04   1.16130E-04   1.62184E-04   2.08916E-12     3474.39  1
 2.34100E-03   3.70457E-04   1.16477E-04   1.62578E-04   2.27107E-12     3521.89  1
 2.36100E-03   3.64038E-04   1.16712E-04   1.63511E-04   2.45455E-12     3522.95  1
 2.38100E-03   3.59839E-04   1.16807E-04   1.64396E-04   2.64156E-12     3553.86  1
 2.40100E-03   3.52910E-04   1.16747E-04   1.65026E-04   2.83720E-12     3546.34  1
 2.42100E-03   3.67092E-04   1.16592E-04   1.67427E-04   3.01409E-12     3521.74  1
 2.44100E-03   3.86879E-04   1.16504E-04   1.67082E-04   3.17976E-12     3487.98  1
 2.46100E-03   4.07608E-04   1.16329E-04   1.67354E-04   3.33808E-12     3483.33  1
 2.48100E-03   4.28631E-04   1.15934E-04   1.67663E-04   3.48698E-12     3454.13  1
 2.50100E-03   4.50268E-04   1.15400E-04   1.67917E-04   3.64046E-12     3393.24  1
 2.52100E-03   4.75139E-04   1.14770E-04   1.70490E-04   3.77604E-12     3362.85  1
 2.54100E-03   4.94768E-04   1.14066E-04   1.71482E-04   3.90079E-12     3345.79  1
 2.56100E-03   5.15592E-04   1.13523E-04   1.71743E-04   4.01155E-12     3275.00  1
 2.58100E-03   5.37421E-04   1.12849E-04   1.71771E-04   3.95355E-12     3199.30  0
 2.60100E-03   5.36457E-04   1.11047E-04   1.71816E-04   3.86486E-12     2755.77  0
 2.62100E-03   5.37646E-04   1.08949E-04   1.75563E-04   3.76464E-12     2482.89  0
 2.64100E-03   5.37110E-04   1.07047E-04   1.76906E-04   3.64843E-12     2301.32  0
 2.66100E-03   5.35219E-04   1.03966E-04   1.77476E-04   3.52650E-12     2175.41  0
 2.68100E-03   5.29669E-04   1.01721E-04   1.77624E-04   3.39995E-12     2084.42  0
 2.70100E-03   5.27461E-04   9.87352E-05   1.77554E-04   3.27186E-12     2016.61  0
 2.72100E-03   5.24859E-04   9.62592E-05   1.77248E-04   3.14340E-12     1963.28  0
 2.74100E-03   5.18534E-04   9.36107E-05   1.76619E-04   3.01484E-12     1918.82  0
 2.76100E-03   5.15692E-04   9.15322E-05   1.75866E-04   2.88757E-12     1879.70  0
 2.78100E-03   5.10486E-04   8.90856E-05   1.74452E-04   2.76084E-12     1845.13  0
 2.80100E-03   5.05942E-04   8.71165E-05   1.70116E-04   2.58884E-12     1812.96  0
 2.82100E-03   5.03023E-04   8.43750E-05   1.73309E-04   2.46158E-12     1782.81  0
 2.84100E-03   4.96343E-04   8.28177E-05   1.72888E-04   2.33410E-12     1754.72  0
 2.86100E-03   4.93571E-04   7.99947E-05   1.71730E-04   2.20831E-12     1730.06  0
 2.88100E-03   4.88411E-04   7.82605E-05   1.68405E-04   2.08500E-12     1709.87  0
 2.90100E-03   4.84524E-04   7.58366E-05   1.66667E-04   1.96434E-12     1692.39  0
 2.92100E-03   4.82040E-04   7.38021E-05   1.65699E-04   1.84711E-12     1677.50  0
 2.94100E-03   4.75460E-04   7.22978E-05   1.64903E-04   1.73326E-12     1664.98  0
 2.96100E-03   4.72846E-04   6.95873E-05   1.63964E-04   1.62310E-12     1654.48  0
 2.98100E-03   4.67096E-04   6.81231E-05   1.62718E-04   1.51698E-12     1645.69  0
 3.00100E-03   4.63320E-04   6.53319E-05   1.56136E-04   1.37725E-12     1638.16  0
 3.02100E-03   4.59254E-04   6.36258E-05   1.62154E-04   1.27521E-12     1632.50  0
 3.04100E-03   4.53682E-04   6.17896E-05   1.60972E-04   1.17851E-12     1628.12  0
 3.06100E-03   4.50674E-04   5.93973E-05   1.57270E-04   1.08719E-12     1625.05  0
 3.08100E-03   4.36139E-04   5.79503E-05   1.55295E-04   1.10951E-12     1623.32  1
 3.10100E-03   4.44215E-05   1.06515E-04   4.45610E-05   1.22979E-12     1931.26  1
 3.12100E-03   4.83555E-04   1.10561E-04   1.86185E-04   1.34341E-12     2732.93  1
 3.14100E-03   4.80558E-04   1.12707E-04   1.87847E-04   1.47972E-12     3113.27  1
 3.16100E-03   4.76609E-04   1.13630E-04   1.86505E-04   1.62077E-12     3328.28  1
 3.18100E-03   4.71559E-04   1.14512E-04   1.83637E-04   1.76830E-12     3447.11  1
 3.20100E-03   4.67395E-04   1.15056E-04   1.83283E-04   1.94175E-12     3473.32  1
 3.22100E-03   4.62408E-04   1.15858E-04   1.86931E-04   2.10573E-12     3499.41  1
 3.24100E-03   4.59539E-04   1.16588E-04   1.86801E-04   2.27546E-12     3570.09  1
 3.26100E-03   4.52581E-04   1.17080E-04   1.83268E-04   2.45243E-12     3584.57  1
 3.28100E-03   4.49585E-04   1.17437E-04   1.82091E-04   2.63313E-12     3616.22  1
 3.30100E-03   4.42623E-04   1.17614E-04   1.81350E-04   2.81830E-12     3667.55  1
 3.32100E-03   4.39372E-04   1.17720E-04   1.80666E-04   3.00832E-12     3686.09  1
 3.34100E-03   4.32343E-04   1.17805E-04   1.79854E-04   3.19793E-12     3696.99  1
 3.36100E-03   4.28873E-04   1.17856E-04   1.78678E-04   3.39849E-12     3704.52  1
 3.38100E-03   4.21528E-04   1.17854E-04   1.81394E-04   3.60044E-12     3704.14  1
 3.40100E-03   4.19960E-04   1.17820E-04   1.83157E-04   3.78956E-12     3683.52  1
 3.42100E-03   4.41163E-04   1.17740E-04   1.84213E-04   3.97518E-12     3641.28  1
 3.44100E-03   4.61306E-04   1.17573E-04   1.84923E-04   4.15382E-12     3612.49  1
 3.46100E-03   4.81645E-04   1.17399E-04   1.85634E-04   4.32482E-12     3581.42  1
 3.48100E-03   5.01976E-04   1.17030E-04   1.86015E-04   4.48437E-12     3521.24  1
 3.50099E-03   5.25073E-04   1.16570E-04   1.86509E-04   4.63062E-12     3438.59  1
 3.52099E-03   5.46381E-04   1.16043E-04   1.86655E-04   4.76271E-12     3419.46  1
 3.54099E-03   5.67676E-04   1.15359E-04   1.86768E-04   4.88210E-12     3364.99  1
 3.56099E-03   5.88272E-04   1.14577E-04   1.86524E-04   4.98624E-12     3329.40  1
 3.58099E-03   6.09210E-04   1.13943E-04   1.86263E-04   5.07608E-12     3306.35  1
 3.60099E-03   6.27859E-04   1.13290E-04   1.85938E-04   4.99677E-12     3258.87  0
 3.62099E-03   6.34696E-04   1.12409E-04   1.87020E-04   4.89277E-12     2781.18  0
 3.64099E-03   6.35552E-04   1.09587E-04   1.86157E-04   4.77589E-12     2509.82  0
 3.66099E-03   6.35180E-04   1.08144E-04   1.85399E-04   4.64531E-12     2339.89  0
 3.68099E-03   6.33637E-04   1.05259E-04   1.85072E-04   4.50947E-12     2224.72  0
 3.70099E-03   6.28397E-04   1.03263E-04   1.84799E-04   4.36915E-12     2138.12  0
 3.72099E-03   6.26063E-04   1.00420E-04   1.84461E-04   4.22495E-12     2068.74  0
 3.74099E-03   6.23818E-04   9.83569E-05   1.84104E-04   4.08058E-12     2007.10  0
 3.76099E-03   6.18614E-04   9.57432E-05   1.83655E-04   3.93386E-12     1950.14  0
 3.78099E-03   6.15480E-04   9.36805E-05   1.83158E-04   3.78734E-12     1900.84  0
 3.80099E-03   6.12237E-04   9.12460E-05   1.82185E-04   3.60400E-12     1857.62  0
 3.82099E-03   6.05815E-04   8.91708E-05   1.83836E-04   3.45925E-12     1817.31  0
 3.84099E-03   6.02765E-04   8.77797E-05   1.83899E-04   3.31090E-12     1784.66  0
 3.86099E-03   5.97067E-04   8.51763E-05   1.83109E-04   3.16169E-12     1757.09  0
 3.88099E-03   5.93662E-04   8.36242E-05   1.80994E-04   3.01414E-12     1734.04  0
 3.90099E-03   5.90255E-04   8.18705E-05   1.78592E-04   2.86774E-12     1714.69  0
 3.92099E-03   5.84580E-04   7.95203E-05   1.77509E-04   2.72412E-12     1698.45  0
 3.94099E-03   5.82142E-04   7.81284E-05   1.76603E-04   2.58278E-12     1684.37  0
 3.96099E-03   5.76169E-04   7.58826E-05   1.75842E-04   2.44457E-12     1672.21  0
 3.98099E-03   5.73146E-04   7.40522E-05   1.74972E-04   2.30974E-12     1661.74  0
 4.00099E-03   5.67768E-04   7.26312E-05   1.70129E-04   2.12896E-12     1652.18  0
 4.02099E-03   5.63079E-04   7.01206E-05   1.75054E-04   1.99687E-12     1644.51  0
 4.04099E-03   5.54566E-04   6.87138E-05   1.73648E-04   1.87029E-12     1638.16  0
 4.06099E-03   5.45922E-04   6.73185E-05   1.72679E-04   1.74929E-12     1632.93  0
 4.08099E-03   5.39139E-04   6.48330E-05   1.71338E-04   1.63394E-12     1628.85  0
 4.10099E-03   5.28801E-04   6.34990E-05   1.67541E-04   1.61420E-12     1625.86  1
 4.12099E-03   4.75341E-05   1.04673E-04   4.59364E-05   1.68645E-12     1856.65  1
 4.14099E-03   7.61385E-05   1.09958E-04   6.13348E-05   1.75996E-12     2707.34  1
 4.16100E-03   6.03161E-04   1.11882E-04   2.01534E-04   1.84925E-12     3027.83  1
 4.18100E-03   6.00699E-04   1.12943E-04   2.01426E-04   1.96359E-12     3212.68  1
 4.20100E-03   5.93647E-04   1.13389E-04   2.04571E-04   2.10117E-12     3319.07  1
 4.22100E-03   5.90460E-04   1.14177E-04   2.02311E-04   2.23807E-12     3406.13  1
 4.24100E-03   5.87460E-04   1.15490E-04   2.01259E-04   2.38291E-12     3479.58  1
 4.26100E-03   5.81586E-04   1.16297E-04   2.00742E-04   2.53079E-12     3575.87  1
 4.28100E-03   5.78247E-04   1.16841E-04   2.00168E-04   2.68344E-12     3590.09  1
 4.30100E-03   5.73051E-04   1.17296E-04   1.99387E-04   2.84276E-12     3643.93  1
 4.32100E-03   5.68716E-04   1.17620E-04   1.97413E-04   3.00880E-12     3679.96  1
 4.34100E-03   5.64873E-04   1.17844E-04   1.94627E-04   3.17404E-12     3658.48  1
 4.36100E-03   5.58990E-04   1.18009E-04   1.93645E-04   3.35855E-12     3675.97  1
 4.38100E-03   5.55956E-04   1.18195E-04   1.96008E-04   3.55108E-12     3707.55  1
 4.40100E-03   5.48213E-04   1.18271E-04   1.95705E-04   3.74861E-12     3650.63  1
 4.42100E-03   5.45715E-04   1.18384E-04   1.95791E-04   3.93496E-12     3651.31  1
 4.44100E-03   5.41155E-04   1.18428E-04   1.95793E-04   4.13060E-12     3686.46  1
 4.46100E-03   5.35474E-04   1.18544E-04   1.95398E-04   4.32652E-12     3689.37  1
 4.48100E-03   5.31327E-04   1.18582E-04   1.95183E-04   4.51858E-12     3657.63  1
 4.50100E-03   5.24220E-04   1.18547E-04   1.95879E-04   4.70867E-12     3641.31  1
 4.52100E-03   5.33516E-04   1.18457E-04   1.96445E-04   4.89184E-12     3642.53  1
 4.54100E-03   5.54954E-04   1.18321E-04   1.96851E-04   5.06521E-12     3601.56  1
 4.56100E-03   5.76690E-04   1.18138E-04   1.97335E-04   5.22652E-12     3536.30  1
 4.58100E-03   5.96830E-04   1.17896E-04   1.97553E-04   5.38289E-12     3524.42  1
 4.60100E-03   6.22032E-04   1.17584E-04   1.97695E-04   5.51643E-12     3498.69  1
 4.62100E-03   6.37353E-04   1.17088E-04   1.97917E-04   5.64495E-12     3465.06  1
 4.64100E-03   6.56671E-04   1.16531E-04   1.98127E-04   5.75973E-12     3427.64  1
 4.66100E-03   6.76457E-04   1.15967E-04   1.98059E-04   5.86497E-12     3400.95  1
 4.68100E-03   6.93999E-04   1.15216E-04   1.97691E-04   5.95405E-12     3333.13  1
 4.70100E-03   7.10321E-04   1.14363E-04   1.97124E-04   6.02940E-12     3278.79  1
 4.72100E-03   7.29676E-04   1.13793E-04   1.96970E-04   6.09331E-12     3271.16  1
